Wavelength	I	Idark	R	Rdark	XCorrect	Ic	Rc	Ic/Rc
nm	uA	uA	uA	uA				
	Abs Detector Raw	Dark Offset for Abs Detector	Ref Detector Raw	Dark Offset for Ref Detector	Linear interp 	Dark subtracted Abs Detecto	Corrected Ref Detector	Corrected Intensity
600	0.830667233008943	0.00283820885001009	1.28226460211509	1.09815597095378E-7	0.987989187240601	0.827829024158932	1.26686345357446	0.65344771121403
599	0.838036774910648		1.29379999025259		0.987889766693115	0.835198566060637	1.27813166203249	0.653452684782493
598	0.848455550808958		1.31027611781127		0.987848818302155	0.845617341958948	1.29435460614819	0.653311957899529
597	0.858284287647125		1.32531870350556		0.987856447696686	0.855446078797115	1.30922451802893	0.653399067170702
596	0.870049280886248		1.34393459698586		0.987930059432983	0.867211072036237	1.32771327778415	0.653161406567797
595	0.88299724378617		1.3640422369812		0.988070905208588	0.88015903493616	1.34777033933116	0.653048230288956
594	0.889671822616922		1.37460711120656		0.988251626491547	0.886833613766912	1.35845760491129	0.652823916300889
593	0.903710088552039		1.39640284476205		0.988462150096893	0.900871879702029	1.38029124978635	0.652667963983305
592	0.915546225894881		1.41468808181056		0.988645374774933	0.91270801704487	1.39862472026255	0.652575350501122
591	0.925238256190626		1.42985801583198		0.988836348056793	0.922400047340616	1.41389547002537	0.652382065644544
590	0.936649071574718		1.44785633424151		0.989001393318176	0.933810862724708	1.43193182328162	0.65213360548455
589	0.943850937695843		1.45860451992854		0.989067733287811	0.941012728845833	1.44265855767401	0.65227681480157
588	0.9547080528258		1.47617136250971		0.98906421661377	0.95186984397579	1.46002816363367	0.651953070279689
587	0.963339128841116		1.48898941208008		0.988976001739502	0.960500919991106	1.47257468678642	0.652259561847554
586	0.972052303244777		1.50302151346444		0.988833606243134	0.969214094394767	1.4862380748307	0.652125733291533
585	0.979977626699437		1.51525130314946		0.988634169101715	0.977139417849427	1.498029104502	0.652283333423126
584	0.984648572420519		1.52247359926318		0.988370776176453	0.981810363570509	1.50476830447338	0.652466137578644
583	0.994132308039362		1.53775896602339		0.98806756734848	0.991294099189352	1.51940965222181	0.652420561985898
582	0.999676657687618		1.54604667808744		0.987787842750549	0.996838448837608	1.52716600446513	0.652737453507378
581	1.00819919183325		1.55944051806078		0.987524926662445	1.00536098298324	1.53998627478677	0.652837625531723
580	1.01377696738469		1.56824223006174		0.987307488918304	1.01093875853468	1.54833718975614	0.652918992854462
579	1.02499992723975		1.58553119941404		0.987125396728516	1.02216171838974	1.56511800584526	0.653089233254147
578	1.03110772598244		1.59549477817062		0.986987471580505	1.02826951713243	1.5747332486399	0.652980127282221
577	1.04063392223343		1.60969508176378		0.986913800239563	1.03779571338342	1.58863018199189	0.653264507465287
576	1.04778082314482		1.62137765312823		0.986873984336853	1.04494261429481	1.60009531628324	0.653050229983825
575	1.0589232852585		1.63857224229292		0.986889600753784	1.05608507640849	1.61708979762682	0.653077570558145
574	1.06279154848767		1.64467854567428		0.986933946609497	1.05995333963766	1.62318897960555	0.653006737327184
573	1.07914556606148		1.66958274174176		0.987006604671478	1.07630735721147	1.64788908475591	0.653143082970839
572	1.08264877954846		1.67546411378857		0.987107157707214	1.07981057069845	1.65386251080251	0.652902259798178
571	1.09766974964225		1.69869721916449		0.987225294113159	1.09483154079224	1.67699675338613	0.65285251064535
570	1.10731469436689		1.71391189805877		0.987323939800262	1.10447648551688	1.69218613923837	0.652692076779447
569	1.11566282055424		1.72634685284307		0.987429916858673	1.11282461170423	1.70464642093686	0.652818436736359
568	1.12444410103673		1.74062202215859		0.987501919269562	1.12160589218672	1.71886747916136	0.652526099763057
567	1.13874037173156		1.76195623990781		0.987572610378265	1.13590216288155	1.74005961476716	0.65279496934566
566	1.14168805085796		1.76721101283603		0.987618684768677	1.13884984200795	1.74533050774991	0.652512424982569
565	1.15716860499532		1.79058100785984		0.987648010253906	1.15433039614531	1.76846366115205	0.652730628003594
564	1.1639163954957		1.8012808689621		0.987658262252808	1.16107818664569	1.77904982440806	0.652639499308019
563	1.17478649432922		1.81830779302737		0.987679004669189	1.17194828547921	1.79590432273694	0.652567216773092
562	1.18922974225735		1.84021264218301		0.987717986106873	1.18639153340734	1.81761101647857	0.652720258983604
561	1.19646878336612		1.8517781221783		0.987771451473236	1.19363057451611	1.82913345507773	0.652566148851827
560	1.21115198795833		1.87413356489903		0.987843811511993	1.20831377910832	1.85135113555176	0.652665912967506
559	1.22222673766993		1.89098645179458		0.987969517707825	1.21938852881992	1.86823686427706	0.652694822662
558	1.23529402735161		1.91181258086175		0.988138794898987	1.2324558185016	1.8891360712124	0.652391237075176
557	1.24628755758112		1.92779309532426		0.988361120223999	1.24344934873111	1.90535563471731	0.652607484962034
556	1.25760476334644		1.94621646866373		0.988634049892426	1.25476655449643	1.92409576081492	0.652133111069791
555	1.27388397165542		1.97029087500064		0.988924205303192	1.27104576280541	1.94846822917684	0.652330761042165
554	1.28211404822165		1.98336933258998		0.98927766084671	1.27927583937164	1.9621028653016	0.651992238528737
553	1.29386157319913		2.00119080621262		0.989654302597046	1.29102336434911	1.98048698300649	0.651871673697783
552	1.30456665433311		2.01736939654104		0.990039765834808	1.3017284454831	1.99727581623199	0.651751968808646
551	1.31801580436482		2.03829560037588		0.990430295467377	1.31517759551481	2.01878960496544	0.651468380994224
550	1.33438422470957		2.0631780114703		0.990816295146942	1.33154601585956	2.04423028474656	0.651367913779167
549	1.34239350812483		2.07551228418713		0.991156876087189	1.33955529927482	2.05715816303102	0.651167870000388
548	1.35643769447008		2.09728028947124		0.991467356681824	1.35359948562007	2.07938483594436	0.650961506606027
547	1.3732368231261		2.12221453009427		0.991732120513916	1.37039861427609	2.10466820720818	0.651123350266173
546	1.38557023372135		2.14151819212651		0.99197244644165	1.38273202487134	2.12432693120899	0.650903589535723
545	1.39465227103857		2.15526987664187		0.992176711559296	1.39181406218856	2.13840846977286	0.650864454505456
544	1.411829689488		2.18073955427448		0.99236261844635	1.40899148063799	2.16408430525245	0.651079755635317
543	1.42203409771139		2.19720923194304		0.992519378662109	1.41919588886138	2.18077263268465	0.650776641081684
542	1.43342145118151		2.2134361850032		0.992692410945892	1.4305832423315	2.1972611939526	0.651075641925874
541	1.44463030733789		2.23112386803799		0.992887318134308	1.44179209848788	2.21525448472717	0.650847163803599
540	1.46270143153326		2.25806014722724		0.993080854415894	1.45986322268325	2.24243619127514	0.651016616822046
539	1.47042142967136		2.26956201485706		0.993303239345551	1.46758322082135	2.25436319217294	0.650996798526848
538	1.4853993242038		2.29264392394452		0.99354887008667	1.48256111535379	2.27785367103898	0.650858803707772
537	1.49409799970615		2.3050843902034		0.993815898895264	1.49125979085614	2.29082940614295	0.650969376793082
536	1.50749396980643		2.3255377592623		0.994108498096466	1.50465576095642	2.31183673995824	0.650848623931634
535	1.52198396456054		2.3477401883728		0.994416773319244	1.51914575571053	2.33463211351112	0.650700273897048
534	1.54361966546286		2.37987333033425		0.994738757610321	1.54078145661285	2.36735213064879	0.650845912048828
533	1.55676300037128		2.39977944597736		0.995085120201111	1.55392479152127	2.38798470918067	0.650726441231874
532	1.57559647350159		2.42787982428305		0.995432674884796	1.57275826465158	2.41679079847087	0.650763096932793
531	1.58857306494144		2.44782728514084		0.995780050754547	1.58573485609143	2.43749746888373	0.650558565222891
530	1.6142739651073		2.48634956281894		0.996109545230865	1.61143575625729	2.47667642291618	0.650644444848348
529	1.6265377086496		2.50486700659261		0.996413171291351	1.62369949979959	2.49588236828031	0.650551292174214
528	1.64633736829949		2.53510779016318		0.996694326400757	1.64349915944948	2.52672744181742	0.650445763262597
527	1.66684788610084		2.56501920361788		0.996931076049805	1.66400967725083	2.5571472452726	0.650728924713694
526	1.68366694883881		2.59087556337784		0.997141242027283	1.6808287399888	2.58346876770306	0.650609274244569
525	1.70913666004074		2.62841156176301		0.997322916984558	1.70629845119073	2.62137497629181	0.650917349338727
524	1.72589742962709		2.65364052894736		0.997480094432831	1.72305922077708	2.64695349586632	0.650959385371876
523	1.75364667268027		2.69543064108506		0.997587084770203	1.75080846383026	2.6889266858897	0.651117962054426
522	1.76871136530807		2.71682694226909		0.997663676738739	1.76587315645806	2.71047944672802	0.651498449320376
521	1.79556756637263		2.75774610714465		0.997728884220123	1.79272935752262	2.75148283687763	0.651550259916213
520	1.81378923530617		2.78449246934247		0.997798621654511	1.81095102645616	2.77836263834343	0.651805132081649
519	1.83754250364387		2.81977811373272		0.997877955436707	1.83470429479386	2.81379430933422	0.652039237092627
518	1.85473887808688		2.84498382652263		0.997595727443695	1.85190066923687	2.83814360043382	0.652504217529302
517	1.88556276407211		2.89074334782416		0.997375786304474	1.8827245552221	2.88315731001313	0.653007919021083
516	1.91167931365037		2.93008013965917		0.997244119644165	1.90884110480036	2.9220050798483	0.653264129472171
515	1.93331969137152		2.96226217078057		0.997211277484894	1.93048148252151	2.95400113405992	0.653514130466258
514	1.9583230192135		2.9980541017899		0.997249484062195	1.95548481036349	2.98980779668698	0.654050341473581
513	1.97982217684244		3.03124781503617		0.997347593307495	1.97698396799243	3.02320760352061	0.653935894342876
512	2.00903834646447		3.07343129875433		0.997505187988281	2.00620013761446	3.06576355589138	0.65438840962122
511	2.02353178817901		3.09496008284799		0.9980788230896	2.020693579329	3.08901400739359	0.654154877411514
510	2.05921688477715		3.14699948693693		0.998650431632996	2.05637867592714	3.14275228631099	0.65432413648514
509	2.0770348931288		3.17164466506111		0.999201953411102	2.07419668427879	3.169113435127	0.654503767927028
508	2.11174213023377		3.22261755304102		0.999698877334595	2.10890392138376	3.22164704007134	0.654604273886272
507	2.14423360959613		3.26995694494171		1.00018095970154	2.14139540074612	3.27054856553904	0.654751139704657
506	2.17113684435191		3.30984792378622		1.00064420700073	2.1682986355019	3.31198004110374	0.654683484982385
505	2.20790138277922		3.3631363268936		1.00108909606934	2.20506317392921	3.36679899551267	0.654943516636474
504	2.23590384848764		3.40380422223891		1.00150096416473	2.23306563963763	3.40891310041984	0.655066754081414
503	2.26944094552161		3.45378968346496		1.00190210342407	2.2666027366716	3.46035903862343	0.655019525827376
502	2.29170948791309		3.48383251781757		1.0023090839386	2.28887127906308	3.49187686946006	0.655484532997581
501	2.31333168020951		3.51586161925209		1.00277197360992	2.3104934713595	3.5256073847568	0.655346219590153
500	2.34903595252778		3.56800552773514		1.00322830677032	2.34619774367777	3.57952403396677	0.655449641185326
499	2.38916366232837		3.62579051285581		1.00371515750885	2.38632545347836	3.63926078548158	0.655717079413033
498	2.42995680181381		3.6859809056817		1.00423514842987	2.4271185929638	3.70159147164625	0.655695965250417
497	2.50291981421758		3.79391584177385		1.00479972362518	2.50008160536757	3.81212547892889	0.655823534452498
496	2.58399619328814		3.91566481589674		1.00538742542267	2.58115798443813	3.93676005766533	0.655655398507794
495	2.68193042141244		4.05928651942442		1.00602066516876	2.67909221256243	4.08372601390519	0.656041126030506
494	2.74100793582482		4.14572387259466		1.00665152072906	2.73816972697481	4.17329913032417	0.656116334215926
493	2.82263765961973		4.26618976566799		1.00732374191284	2.81979945076972	4.29743412784309	0.656158853605279
492	2.86832625806998		4.33010873513915		1.00800919532776	2.86548804921997	4.36478931109418	0.656500885835803
491	2.87144903637782		4.33139134011449		1.00868678092957	2.86861082752781	4.36901707703674	0.656580365090591
490	2.87479364085664		4.33311094459981		1.00935685634613	2.87195543200663	4.37365513039714	0.656648808921029
489	2.8655833503661		4.31458927719335		1.01000785827637	2.86274514151609	4.35776896428561	0.656929076547635
488	2.88871044988306		4.34788097627907		1.01062798500061	2.88587224103305	4.39409007909669	0.656762194011807
487	2.91668258111895		4.38534832232076		1.01123321056366	2.91384437226894	4.4346097523712	0.657068949688503
486	3.00054869406509		4.50845687895775		1.01181256771088	2.99771048521508	4.56171321999921	0.657145756570729
485	3.10103521710106		4.6556288388189		1.0123975276947	3.09819700825105	4.71334701510737	0.657324189863511
484	3.21402335141521		4.81983868923697		1.01296555995941	3.2111851425652	4.88233048551754	0.657715644627199
483	3.31261671039625		4.96320309296099		1.01353585720062	3.30977850154624	5.03038418998295	0.657957399782114
482	3.37113753535772		5.04368182799097		1.01412987709045	3.36829932650771	5.11494832093656	0.658520695648195
481	3.39545215928401		5.07619026291967		1.01474034786224	3.39261395043399	5.15101496177572	0.65863018756685
480	3.39081274279864		5.06433987234202		1.0153546333313	3.38797453394863	5.14210084264514	0.658869718355393
479	3.38214359000125		5.04555094419444		1.01600956916809	3.37930538115124	5.12632792945295	0.659205854103808
478	3.40132193465118		5.07146605639558		1.01668751239777	3.39848372580117	5.15609609743838	0.65911954734311
477	3.46792839190456		5.16629499888775		1.01739680767059	3.46509018305455	5.25617192762691	0.6592421691615
476	3.5783508401938		5.32717660224881		1.01812326908112	3.57551263134379	5.42372234544817	0.659235927581086
475	3.75377435023503		5.58521012172557		1.01887035369873	3.75093614138502	5.6906049003164	0.659145417243159
474	3.95435837042963		5.87794965913006		1.01963877677917	3.95152016157962	5.9933852884327	0.659313555096499
473	4.20737779080534		6.2530874383928		1.020432472229	4.20453958195533	6.38085336176389	0.658930607487435
472	4.46313245286933		6.62499367469971		1.02120733261108	4.46029424401932	6.7654920069609	0.659271231039841
471	4.67585700035917		6.9394970669977		1.02202296257019	4.67301879150916	7.09232523892608	0.65888388280072
470	4.90035939204022		7.25693993682301		1.02287006378174	4.89752118319021	7.42290650371131	0.65978484044512
469	5.03487618837772		7.44961436232265		1.02371394634247	5.03203797952771	7.6262740051631	0.659829161150117
468	5.15365326309842		7.61427505502408		1.02454149723053	5.15081505424841	7.80114065268881	0.660264348967108
467	5.15909623182668		7.6127714295418		1.02532780170441	5.15625802297667	7.80558608213323	0.660585632996758
466	5.11458596589125		7.53811994058228		1.026087641716	5.11174775704124	7.73477160012403	0.660878953033244
465	5.01056803417798		7.3771375437646		1.02674150466919	5.00772982532797	7.5744131890842	0.661137661798648
464	4.89477751950393		7.20516136036975		1.02724051475525	4.89193931065392	7.40143355191382	0.660944839447892
463	4.78060230023359		7.03461897823871		1.02754735946655	4.77776409138358	7.22840404310175	0.660970812214506
462	4.6474294003751		6.83681800246658		1.02768349647522	4.64459119152509	7.0260849166839	0.661049680811031
461	4.50855606108626		6.63653051547392		1.02759909629822	4.50571785223625	6.81969264741014	0.660692216671576
460	4.41690496281967		6.49974496914549		1.02731204032898	4.41406675396966	6.67726615305599	0.661058980245901
459	4.26980766116135		6.29224851001366		1.02676105499268	4.26696945231134	6.46063560566334	0.660456604079472
458	4.16946635296854		6.14609659409375		1.0259884595871	4.16662814411853	6.30582406437822	0.660758705219185
457	3.99253228385132		5.89480839929707		1.02493917942047	3.98969407500131	6.04181997106213	0.660346401268214
456	3.8831295621205		5.74239808496467		1.02364909648895	3.88029135327049	5.87820049894133	0.660115515618994
455	3.75362164027471		5.56060042944109		1.02212631702423	3.7507834314247	5.68363592514257	0.659926758297878
454	3.66097864748083		5.4373741481952		1.02039349079132	3.65814043863082	5.54826107576026	0.659330984731923
453	3.56855036415875		5.31247252515913		1.01845896244049	3.56571215530873	5.4105351441245	0.659031326906891
452	3.46917682939957		5.17871106329127		1.01636755466461	3.46633862054956	5.26347378809891	0.658564811016482
451	3.37690093865501		5.05495480157874		1.01419043540955	3.374062729805	5.12668669981479	0.658137102453889
450	3.27612993075689		4.91527577381656		1.0119651556015	3.27329172190688	4.97408770214501	0.658068759120454
449	3.13299174773509		4.7136170832161		1.00974082946777	3.13015353888508	4.7595315125148	0.657660009321211
448	2.9927125246628		4.51260936917553		1.00756251811981	2.98987431581279	4.54673594865148	0.657586969988782
447	2.8482441780721		4.30483195301358		1.00547337532043	2.84540596922209	4.32839380356717	0.657381490306428
446	2.71772785779284		4.11738776430945		1.00348556041718	2.71488964894283	4.13173905792452	0.6570815849892
445	2.62329913502563		3.98113752071325		1.00168013572693	2.62046092617562	3.98782626209552	0.65711511834987
444	2.54618158162284		3.87111788003959		1.00001692771912	2.54334337277283	3.87118329941827	0.656993786151903
443	2.52190930388779		3.83792646171518		0.99857634305954	2.51907109503778	3.83246246141173	0.657298308959784
442	2.50095825416682		3.80729123234541		0.997353196144104	2.49812004531681	3.79721396970618	0.657882348807989
441	2.50881396702606		3.8210475433256		0.996346414089203	2.50597575817605	3.80708690844244	0.658239703595654
440	2.51909164032483		3.83439386895586		0.99558562040329	2.51625343147482	3.81746728956416	0.659142106692969
439	2.53025079555368		3.8508810637142		0.995049715042114	2.52741258670367	3.83181799583791	0.659585760453373
438	2.56047362258135		3.8924003994858		0.994712889194489	2.55763541373134	3.87182073803931	0.660576918916584
437	2.56988835643045		3.9025849697576		0.994586825370789	2.56705014758044	3.88145948658982	0.661362087237912
436	2.60139334898034		3.94539565073888		0.994661867618561	2.59855514013033	3.9243344972287	0.662164538207789
435	2.61621261161644		3.96120556278508		0.994912445545197	2.61337440276643	3.94105260452084	0.663115838588044
434	2.65880955968842		4.019639705618		0.995339572429657	2.65597135083841	4.00090635660728	0.663842418219116
433	2.69533556051903		4.06703997398329		0.995916783809662	2.69249735166902	4.05043326114757	0.66474304798351
432	2.74159210330295		4.12947694883146		0.996668756008148	2.73875389445294	4.1157205441064	0.665437282512965
431	2.79917607524083		4.20879993435434		0.997550666332245	2.79633786639082	4.19849106942766	0.666034015590276
430	2.84429194420118		4.26790681888379		0.99854189157486	2.84145373535117	4.26168363833798	0.666744408193403
429	2.8993633429069		4.3444026681875		0.999665856361389	2.89652513405689	4.34295090389346	0.666948625060476
428	2.94792087445116		4.40999975044492		1.00089848041534	2.94508266560115	4.4139619389381	0.667219769074327
427	2.97439930452114		4.44494591729747		1.00217723846436	2.97156109567113	4.45462351446589	0.667073454360691
426	2.99869503196312		4.47771965984229		1.00344467163086	2.99585682311311	4.49314382353161	0.666761835537765
425	3.00532071553039		4.4864051334404		1.00461685657501	3.00248250668038	4.50711811215629	0.666164593863714
424	3.00082674582179		4.48143104898762		1.00566327571869	2.99798853697178	4.50681051819481	0.665212909410847
423	2.99459381127638		4.475453509949		1.00652325153351	2.99175560242637	4.50464790838897	0.66414860012807
422	3.142102026019		4.70603193920344		1.00706160068512	3.13926381716899	4.73926394697844	0.662394804824166
421	3.10209947490931		4.65598279389561		1.00723385810852	3.0992612660593	4.68966340217238	0.660870727870073
