Wavelength, nm	Sc/Rc	Wavelength	Signal	Baseline_Result	Baseline_Y
Raw CCD	counts/uA	nm	Sc/Rc		
	Fully Corrected Emission Spectrum		Water Raman		Baseline of "Signal"
246.813	9.49646100104684	365	125.588909572706	365	140.429436467128
247.37	2.95445453365902	365.5	131.608293531359	365.5	139.671416151523
247.927	4.85374673386838	366	129.31285943128	366	138.913395835918
248.484	2.95445453365902	366.5	125.983114688717	366.5	138.155375520313
249.041	2.95445453365902	367	124.147233979078	367	137.397355204708
249.599	3.79858440041873	367.5	120.114058596738	367.5	136.639334889103
250.156	2.69524449147879	368	122.984083403286	368	135.881314573498
250.713	11.7698853598441	368.5	134.878910554163	368.5	135.123294257893
251.27	4.96579991113025	369	132.213192371861	369	134.365273942288
251.828	10.2907505202772	369.5	129.623007043073	369.5	133.607253626683
252.385	9.54926799833258	370	132.849233311078	370	132.849233311078
252.943	-5.81639763255106	370.5	131.508569656326	370.5	132.091212995473
253.501	4.17293769770651	371	124.764702299543	371	131.333192679868
254.058	0.46227882789681	371.5	125.740233436806	371.5	130.575172364262
254.616	0.928657203208071	372	131.575390988479	372	129.817152048657
255.174	1.16786460662445	372.5	129.296081012633	372.5	129.059131733052
255.732	8.01816568021395	373	126.496935020403	373	128.301111417447
256.29	7.58462892682308	373.5	125.632728585119	373.5	127.543091101842
256.847	12.3358059998806	374	115.411040456889	374	126.785070786237
257.406	4.04268252551697	374.5	122.786876425738	374.5	126.027050470632
257.964	6.91710038775197	375	119.218266718453	375	125.269030155027
258.522	-7.91609130095535	375.5	107.140097820581	375.5	124.511009839422
259.08	2.89435320458398	376	106.330820712669	376	123.752989523817
259.638	3.87149093893445	376.5	108.973471034901	376.5	122.994969208212
260.196	7.2904483749847	377	110.094757692654	377	122.236948892607
260.755	-1.2228590404099	377.5	105.087875860583	377.5	121.478928577002
261.313	12.3027028622768	378	102.113070196141	378	120.720908261397
261.872	1.7323784717082	378.5	98.9293339670838	378.5	119.962887945792
262.43	11.7126700817269	379	89.9449780233665	379	119.204867630186
262.989	3.01224640940412	379.5	90.3262477584593	379.5	118.446847314581
263.548	1.26489003729735	380	93.4316033275473	380	117.688826998976
264.106	8.14647990202251	380.5	84.1787617506759	380.5	116.930806683371
264.665	-5.85702740963601	381	84.0686064811923	381	116.172786367766
265.224	1.53077751197555	381.5	96.9082860888395	381.5	115.414766052161
265.783	0	382	84.7592167204435	382	114.656745736556
266.342	5.66794879165621	382.5	87.0481449055042	382.5	113.898725420951
266.901	13.2237124730644	383	85.7660201551205	383	113.140705105346
267.46	-2.60313394214254	383.5	78.6788877694291	383.5	112.382684789741
268.019	3.13411973588199	384	81.4140991384355	384	111.624664474136
268.578	14.3712735632687	384.5	96.1457476345273	384.5	110.866644158531
269.137	-2.35434034345292	385	109.408896591033	385	110.108623842926
269.697	7.87324311385874	385.5	102.617035105367	385.5	109.350603527321
270.256	-2.36697190603826	386	114.200966524714	386	108.592583211715
270.815	9.21227173641947	386.5	133.861499927607	386.5	107.83456289611
271.375	7.10264142808804	387	161.477158841121	387	107.076542580505
271.934	16.2897357344717	387.5	194.741891595605	387.5	106.3185222649
272.494	6.28062189235256	388	234.846364458191	388	105.560501949295
273.054	17.9923860003829	388.5	286.686489511984	388.5	104.80248163369
273.613	-6.80612769961362	389	345.480037393042	389	104.044461318085
274.173	11.0151626141956	389.5	406.683166968866	389.5	103.28644100248
274.733	0	390	477.195227014602	390	102.528420686875
275.293	10.4589172884641	390.5	572.381115278945	390.5	101.77040037127
275.853	2.88074000702367	391	673.795452920149	391	101.012380055665
276.413	10.7437383240871	391.5	779.836430435725	391.5	100.25435974006
276.973	4.1937339513219	392	898.061260075422	392	99.4963394244546
277.533	10.4545778818462	392.5	1034.29947083648	392.5	98.7383191088496
278.093	7.55750434109769	393	1175.87754246028	393	97.9802987932445
278.653	10.6585149890338	393.5	1295.43371228938	393.5	97.2222784776394
279.213	17.1123230927862	394	1428.00431815771	394	96.4642581620344
279.774	4.39474840910372	394.5	1550.51189080121	394.5	95.7062378464293
280.334	3.35125667454477	395	1641.45792620593	395	94.9482175308242
280.895	4.37046970726296	395.5	1723.49754121427	395.5	94.1901972152192
281.455	14.0648648531486	396	1794.69964504502	396	93.4321768996141
282.016	4.32216277165556	396.5	1850.2042117326	396.5	92.674156584009
282.576	12.7009202666509	397	1896.34583981754	397	91.916136268404
283.137	-1.52040090786272	397.5	1901.41211556486	397.5	91.1581159527989
283.698	12.8301006184009	398	1875.69521108534	398	90.4000956371938
284.258	1.25053480806822	398.5	1846.07850830856	398.5	89.6420753215887
284.819	10.7098365243265	399	1814.54986377328	399	88.8840550059837
285.38	12.9015476627902	399.5	1755.76274720032	399.5	88.1260346903786
285.941	8.65152150167757	400	1650.73955529179	400	87.3680143747735
286.502	14.4797705514139	400.5	1546.77119000729	400.5	86.6099940591685
287.063	20.707959878665	401	1468.40723249684	401	85.8519737435634
287.624	19.632205338236	401.5	1345.7739893806	401.5	85.0939534279583
288.185	11.3333589162783	402	1224.9634952338	402	84.3359331123533
288.747	19.9134445153386	402.5	1101.27645432429	402.5	83.5779127967482
289.308	14.5818041974654	403	978.006525186066	403	82.8198924811431
289.869	11.9223900535613	403.5	857.178169452308	403.5	82.0618721655381
290.431	2.36724927653758	404	745.438063465211	404	81.303851849933
290.992	14.3145164576185	404.5	643.430394846724	404.5	80.5458315343279
291.554	3.26795823719644	405	541.388451263526	405	79.7878112187229
292.115	19.2830377673702	405.5	449.720016709203	405.5	79.0297909031178
292.677	27.8050023535331	406	381.123523310564	406	78.2717705875127
293.238	11.084304323159	406.5	309.879598020935	406.5	77.5137502719076
293.8	19.771953685365	407	257.581021333253	407	76.7557299563026
294.362	22.1521166672759	407.5	210.724587186555	407.5	75.9977096406975
294.924	21.9755736406531	408	168.701400767105	408	75.2396893250924
295.486	25.5209883096697	408.5	132.027133242116	408.5	74.4816690094874
296.048	18.925953020264	409	95.4859912155902	409	73.7236486938823
296.61	27.6302677403947	409.5	92.4714656788095	409.5	72.9656283782772
297.172	26.1942062327304	410	77.9185892379235	410	72.2076080626722
297.734	21.1795768937411	410.5	73.1539471304089	410.5	71.4495877470671
298.296	5.77539690149284	411	63.3979029994674	411	70.691567431462
298.858	13.285946799907	411.5	54.8354266004736	411.5	69.933547115857
299.42	17.4482813366808	412	43.6790631524125	412	69.1755268002519
299.983	24.0169772349785	412.5	35.7944097817645	412.5	68.4175064846468
300.545	23.0387756124276	413	44.5970477674472	413	67.6594861690417
301.108	22.7359147830885	413.5	29.5024803066834	413.5	66.9014658534367
301.67	27.078805877132	414	25.762785359149	414	66.1434455378316
302.233	10.8909069674517	414.5	26.0810419415261	414.5	65.3854252222265
302.795	34.9055787174708	415	28.712110442114	415	64.6274049066215
303.358	13.1873188161322	415.5	25.358050920189	415.5	63.8693845910164
303.921	20.716121330501	416	21.3618724044451	416	63.1113642754113
304.484	22.2280943910093	416.5	22.9482082048436	416.5	62.3533439598063
305.046	32.8071676871307	417	18.4937944604393	417	61.5953236442012
305.609	27.9894353540993	417.5	16.1121690873428	417.5	60.8373033285961
306.172	27.073127746184	418	19.8081894409028	418	60.0792830129911
306.735	46.3637794177424	418.5	17.3212751718421	418.5	59.321262697386
307.298	36.4286210907612	419	14.1432312347411	419	58.5632423817809
307.861	33.3525618787284	419.5	17.1679937514335	419.5	57.8052220661758
308.425	55.6051230870722	420	13.947316619192	420	57.0472017505708
308.988	51.1425349575551	420.5	3.59359626587351	420.5	56.2891814349657
309.551	62.6268974081493	421	2.70345093311001	421	55.5311611193606
310.114	67.2889593974959	421.5	1.81252541138151	421.5	54.7731408037556
310.678	82.1483421560636	422	11.9328577676577	422	54.0151204881505
311.241	83.1853865615574	422.5	14.4920379711009	422.5	53.2571001725454
311.805	95.5549944361154	423	7.90108572549938	423	52.4990798569404
312.368	100.481010567685	423.5	6.53765279269063	423.5	51.7410595413353
312.932	120.630393903866	424	9.7091834415309	424	50.9830392257302
313.496	122.027957870106	424.5	11.1481051008435	424.5	50.2250189101252
314.059	130.28853059455	425	18.5049229097819	425	49.4669985945201
314.623	147.207883081355	425.5	23.2224550822961	425.5	48.708978278915
315.187	153.005349611407	426	2.45183926897188	426	47.9509579633099
315.751	178.486762440647	426.5	0.556407828072416	426.5	47.1929376477049
316.315	185.280728126189	427	9.05157122458992	427	46.4349173320998
316.879	198.585539844938	427.5	9.53733107716686	427.5	45.6768970164947
317.443	204.073003926798	428	7.71246306342311	428	44.9188767008897
318.007	234.231218570225	428.5	3.80205523529416	428.5	44.1608563852846
318.571	239.266972683408	429	0.0486779288693851	429	43.4028360696795
319.135	244.679954470277	429.5	10.9135671170608	429.5	42.6448157540745
319.7	269.255677281298	430	10.2702338590877	430	41.8867954384694
320.264	272.405519071897	430.5	6.83784270155338	430.5	41.1287751228643
320.828	288.865202998119	431	3.00159809179302	431	40.3707548072593
321.393	286.848440659147	431.5	10.0528760622103	431.5	39.6127344916542
321.957	287.626392971223	432	17.5969526081316	432	38.8547141760491
322.522	303.385373448013	432.5	11.2072455075532	432.5	38.0966938604441
323.086	297.368615258058	433	26.0872753513218	433	37.338673544839
323.651	317.906654823768	433.5	18.1413379376458	433.5	36.5806532292339
324.216	324.83040573163	434	2.48045806248816	434	35.8226329136289
324.78	327.502476069922	434.5	77.768501951195	434.5	35.0646125980238
325.345	326.042478963545	435	76.0268774013886	435	34.3065922824187
325.91	334.277476356473	435.5	8.70124673143886	435.5	33.5485719668136
326.475	314.391131775536	436	18.2702261007077	436	32.7905516512086
327.04	317.206553740059	436.5	12.7487631915237	436.5	32.0325313356035
327.605	323.393185950034	437	9.11500310737196	437	31.2745110199984
328.17	326.252931414647	437.5	11.2188297055013	437.5	30.5164907043934
328.735	310.14353259906	438	7.73509903083466	438	29.7584703887883
329.3	296.073492592806	438.5	1.35228012836992	438.5	29.0004500731832
329.866	313.128457612749	439	5.91412119795913	439	28.2424297575782
330.431	320.139857513343	439.5	11.6692963361419	439.5	27.4844094419731
330.996	308.910672494914	440	5.06629922486686	440	26.726389126368
331.562	323.647117524191	440.5	2.26271862256273	440.5	25.968368810763
332.127	330.469921678307	441	4.91354010003382	441	25.2103484951579
332.693	323.101281737163	441.5	5.18993188678129	441.5	24.4523281795528
333.258	329.861476887147	442	-1.13355828247002	442	23.6943078639478
333.824	333.015892754477	442.5	0.126723221046644	442.5	22.9362875483427
334.389	333.802671992057	443	6.85405096223603	443	22.1782672327376
334.955	326.655261507713	443.5	8.11499404503354	443.5	21.4202469171325
335.521	346.365942226317	444	8.15847978574788	444	20.6622266015275
336.087	346.857684714515	444.5	7.35611121166414	444.5	19.9042062859224
336.653	342.664157491946	445	1.51246038660179	445	19.1461859703173
337.218	354.339881779684	445.5	18.0240821727412	445.5	18.3881656547123
337.784	347.824418784203	446	8.93985115605472	446	17.6301453391072
338.35	345.395751472851	446.5	-0.652176832359722	446.5	16.8721250235021
338.917	356.958166398295	447	1.68393419689703	447	16.1141047078971
339.483	354.081916094907	447.5	-1.68848640612889	447.5	15.356084392292
340.049	372.472777889825	448	4.66980237303052	448	14.5980640766869
340.615	373.058983677499	448.5	-1.04159241705256	448.5	13.8400437610818
341.181	402.042149811146	449	4.83420032544703	449	13.0820234454768
341.748	427.99890091095	449.5	10.881128682794	449.5	12.3240031298717
342.314	527.540531822019	450	11.5659828142666	450	11.5659828142667
342.881	698.067688533053				
343.447	1060.04539243895				
344.014	1615.26646247645				
344.58	2387.24827248896				
345.147	3447.87045713407				
345.714	4712.73325748322				
346.28	6272.04457183527				
346.847	7953.6767643803				
347.414	9800.58495759158				
347.981	11695.9382745399				
348.548	13137.8208185918				
349.115	13148.3198614665				
349.682	13166.9456518374				
350.249	13156.7591933899				
350.816	13229.1800550154				
351.384	13244.3217688305				
351.951	13232.3255973059				
352.518	13266.1562685361				
353.086	13053.6222776019				
353.653	11203.2218520642				
354.221	9227.3822840521				
354.788	7359.12187903852				
355.356	5626.96206832083				
355.923	4215.12207351936				
356.491	3005.34284463503				
357.059	2019.16276300328				
357.627	1284.8255865073				
358.195	770.03834199379				
358.762	449.778338415301				
359.33	280.642379551053				
359.898	224.150445230242				
360.466	208.876723804271				
361.035	172.12397098997				
361.603	176.168696446331				
362.171	156.219486570769				
362.739	149.062703288883				
363.308	142.577410636122				
363.876	137.65898258686				
364.444	118.070972073547				
365.013	125.87360307829				
365.581	131.681604288291				
366.15	128.088019255047				
366.719	125.119837499638				
367.287	122.302565712932				
367.856	120.043961606719				
368.425	134.014041808032				
368.994	132.274671163137				
369.562	129.779744511242				
370.131	133.376288203766				
370.7	128.979022853089				
371.269	123.42209193917				
371.838	130.622024954659				
372.408	130.032231704183				
372.977	126.504858244305				
373.546	124.981643756562				
374.115	114.947859589336				
374.685	125.214021414718				
375.254	111.365410094379				
375.823	105.989179484272				
376.393	108.271908870842				
376.963	110.266768552668				
377.532	104.780613254071				
378.102	101.700924760403				
378.671	96.4732868203234				
379.241	87.6274781084583				
379.811	94.27871062867				
380.381	86.4855527329141				
380.951	82.9792340911009				
381.521	96.9133163041879				
382.091	83.118354384739				
382.661	88.9361050687503				
383.231	81.5241101966598				
383.801	79.0446643521894				
384.371	91.0984134038447				
384.941	109.312761876681				
385.512	102.601244139263				
386.082	117.313161914333				
386.652	141.089445519129				
387.223	176.087097038818				
387.793	216.748161468546				
388.364	271.608809328505				
388.934	337.584875651583				
389.505	407.317319055183				
390.076	490.008841404243				
390.646	602.397924668258				
391.217	718.381297857334				
391.788	846.403991391376				
392.359	993.430685305781				
392.93	1157.80955727229				
393.501	1295.68193098687				
394.072	1447.09573103402				
394.643	1579.83262385278				
395.214	1675.72750226724				
395.785	1767.60645494994				
396.356	1833.86231756678				
396.928	1891.97185799958				
397.499	1901.44082205402				
398.07	1871.33658878456				
398.642	1837.92542262293				
399.213	1794.68290147603				
399.785	1701.37447279042				
400.356	1570.69792360952				
400.928	1482.5328098268				
401.499	1346.0275919719				
402.071	1207.87065827704				
402.643	1065.53649904312				
403.215	925.87658524647				
403.787	791.046108415409				
404.358	672.40674275464				
404.93	555.506259853759				
405.502	449.406728096486				
406.074	371.033246555922				
406.646	291.460463321206				
407.219	238.579946592946				
407.791	183.528054443893				
408.363	144.020720671139				
408.935	97.8638716604281				
409.508	92.3753028587851				
410.08	75.9716581419482				
410.652	71.8822345303718				
411.225	57.8799825791225				
411.797	50.4599577695977				
412.37	34.4503011048522				
412.943	44.9367618621265				
413.515	29.1126676481487				
414.088	25.9589300071641				
414.661	26.5327679638424				
415.234	28.7100215020008				
415.806	21.4404938261466				
416.379	23.1590018774948				
416.952	18.978465435063				
417.525	16.1970402751718				
418.098	20.0845701736965				
418.671	15.6314563453839				
419.244	14.9561850738019				
419.818	17.236210237839				
420.391	4.84925307201279				
420.964	2.81489227368789				
421.537	2.18633636781865				
422.111	13.8755659343615				
422.684	12.4402843708788				
423.258	5.74149478975983				
423.831	9.1414013943994				
424.405	10.5155114676256				
424.978	18.0548968066629				
425.552	22.137643299525				
426.126	-1.53237962991114				
426.699	5.05180138105898				
427.273	9.93325753691886				
427.847	8.23122492534946				
428.421	4.85995119940201				
428.995	0				
429.569	11.924687524409				
430.143	8.74557331200865				
430.717	5.58969902468198				
431.291	4.2296264425982				
431.865	18.6929346099019				
432.439	10.5394922275098				
433.014	26.3231784144813				
433.588	13.9813619630542				
434.162	15.0371541862819				
434.737	103.68128515066				
435.311	21.2452750490972				
435.886	16.5389695977974				
436.46	13.3694637467437				
437.035	9.15709063331735				
437.609	11.2364393897854				
438.184	5.08913351099868				
438.759	1.64866890521277				
439.333	11.6880622917398				
439.908	6.28521191763459				
440.483	2.24197447747256				
441.058	5.22382182251158				
441.633	4.01610387365351				
442.208	-2.52161290625122				
442.783	4.5904777874815				
443.358	8.14276441340678				
443.933	8.00033200806058				
444.508	7.25668719879772				
445.083	2.66363143882459				
445.659	20.3755886128219				
446.234	-0.147315040350939				
446.809	2.93948967939454				
447.385	-2.49263077952451				
447.96	4.68073095973963				
448.536	-1.16705101004678				
449.111	6.84071012449285				
449.687	11.4913693119402				
450.262	11.9218246472899				
450.838	10.4639581395049				
451.414	-4.06509839262539				
451.989	7.97469469001186				
452.565	8.97668290227232				
453.141	7.08627660691665				
453.717	5.34950386825177				
454.293	5.20136410806669				
454.869	2.59782233483858				
455.445	13.8505111600816				
456.021	-1.00977892598307				
456.597	3.60080491395907				
457.173	5.32151443197089				
457.749	0.574603605742132				
458.325	10.4824985047684				
458.902	5.45804024247016				
459.478	8.31009253907908				
460.054	4.14371112739811				
460.631	14.7215312971048				
461.207	3.14289340005326				
461.784	4.56302068466875				
462.36	4.70080582675291				
462.937	-0.284747434680213				
463.514	6.39405031012897				
464.09	6.23976029386116				
464.667	14.1705318462876				
465.244	4.38940141018497				
465.82	13.5817144564683				
466.397	2.96616756281232				
466.974	2.67833392478358				
467.551	-2.67297531661225				
468.128	4.77537624673275				
468.705	6.87969286331157				
469.282	-0.140276075263055				
469.859	3.64185389363563				
470.436	-0.840236468429839				
471.014	-2.80115319874978				
471.591	-0.139842255594002				
472.168	-0.279424410260509				
472.745	9.92508650104674				
473.323	0.978397802596097				
473.9	1.6761130588592				
474.478	-0.279092902687042				
475.055	6.13516749510379				
475.633	4.18709115809258				
476.21	7.53757721885872				
476.788	-3.20601340913296				
477.365	3.90021724435963				
477.943	1.81024550748309				
478.521	-0.69614494507806				
479.099	-3.8973414325647				
479.676	7.50900062282098				
480.254	5.97883385094098				
480.832	4.8715101779575				
481.41	-3.2023463163042				
481.988	3.34174034180414				
482.566	4.87635990978026				
483.144	1.39422729520711				
483.722	7.39638106850307				
484.301	5.72379341663074				
484.879	-7.81647134815031				
485.457	13.2663830252622				
486.035	11.7378856804873				
486.614	14.2626703879522				
487.192	9.23590203889515				
487.77	9.66518001651665				
488.349	2.52286720869416				
488.927	1.6825004606326				
489.506	6.87643983863772				
490.085	4.49505531859904				
490.663	3.09287931573215				
491.242	-1.12481937899897				
491.821	3.37158597050599				
492.399	-0.14047022303532				
492.978	-4.63668924674286				
493.557	2.24621998075746				
494.136	0.140332745147017				
494.715	2.80990004439455				
495.294	0.421750236790719				
495.873	0.843601415411312				
496.452	0				
497.031	4.21035632083754				
497.61	-1.68534622688295				
498.189	-0.1405019129063				
498.768	4.63543377910175				
499.347	8.41771338503625				
499.927	5.6011947898338				
500.506	-2.94637643994524				
501.085	1.40608757154124				
501.665	0.281288937633331				
502.244	-1.68693524927603				
502.824	5.05334731421363				
503.403	-2.5270994859093				
503.983	3.79401147277282				
504.562	1.68761371717922				
505.142	-3.93931054094349				
505.722	0.983912380708294				
506.301	1.68499997336515				
506.881	-1.82342324855732				
507.461	-0.561393865315139				
508.041	-2.2475936775863				
508.621	-3.64859175973573				
509.201	-8.4093875063211				
509.781	-0.979483376496339				
510.361	7.2706364469893				
510.941	6.15071112282777				
511.521	0.139944690808095				
512.101	-1.68084543680794				
512.681	-0.419860210327328				
513.261	2.23776206798446				
513.841	7.82857117931298				
514.422	-2.09672043351849				
515.002	4.8925151371149				
515.582	8.67760228968253				
516.163	-2.10002976332451				
516.743	-6.00698894658169				
517.324	4.74250679590405				
517.904	9.33629660021399				
518.485	1.67244571476202				
519.065	8.08575697165623				
519.646	4.87643806965495				
520.227	6.26446669621264				
520.807	0.834250714294869				
521.388	-4.45173123404592				
521.969	0.139312634003432				
522.55	1.39303079287805				
523.131	-3.06370303299424				
523.712	-4.86980806283853				
524.292	0.97350767880881				
524.873	4.72816521255262				
525.454	-2.91908767604309				
526.036	0.55576236503615				
526.617	3.05870193607409				
527.198	2.50309131676121				
527.779	0.555873104120582				
528.36	5.28065963229275				
528.941	2.64129818554247				
529.523	3.4757748504105				
530.104	-2.22620930150481				
530.685	0.558738972548917				
531.267	-2.23898102492543				
531.848	6.43258488501661				
532.43	-2.09893581947899				
533.011	-9.52566359310778				
533.593	6.72597687806342				
534.174	7.85403616660899				
534.756	2.10864120068698				
535.338	-1.97199747347546				
535.919	-1.69326306813229				
536.501	0				
537.083	7.34779909422666				
537.665	-0.282481302259815				
538.247	-6.36327522059866				
538.828	0.709404329659343				
539.41	5.11932624423036				
539.992	6.83817567523617				
540.574	8.99071292719806				
541.156	6.57473181955126				
541.739	2.57527743822676				
542.321	4.72792838961406				
542.903	18.370195827312				
543.485	10.4891737960635				
544.067	3.4525254000046				
544.649	2.88246793461434				
545.232	9.10330734624637				
545.814	3.48067920170602				
546.397	-0.290593530994723				
546.979	2.90882771687916				
547.561	-4.07648108157949				
548.144	-0.873977353056702				
548.726	-5.82055956889783				
549.309	7.1233511048524				
549.892	-1.16194896583768				
550.474	2.32585660453018				
551.057	-2.47388638724736				
551.64	-4.07289991248752				
552.222	5.53003801023007				
552.805	-3.49926714824739				
553.388	-4.23390565136051				
553.971	6.72288706029113				
554.554	2.92331436039755				
555.137	1.75523851335839				
555.72	-2.93368749560745				
556.303	-1.46969804107985				
556.886	1.91276749870237				
557.469	4.71743543905308				
558.052	8.71574015973478				
558.635	-5.76995831198978				
559.218	-2.96381757183349				
559.801	2.67241639860316				
560.384	-6.38760673557453				
560.968	5.64410864010055				
561.551	-3.87195989053486				
562.134	2.83654989428931				
562.718	-0.598039234965497				
563.301	-2.69400249703752				
563.885	-6.58976751732158				
564.468	6.0043633398064				
565.052	4.51532516266093				
565.635	3.77283973792495				
566.219	0				
566.803	1.21234388692053				
567.386	8.0449066579546				
567.97	-4.10468676482601				
568.554	0.91344597321392				
569.137	1.3718934185212				
569.721	7.47499948316723				
570.305	2.74937822536718				
570.889	-3.21306266611294				
571.473	6.74732551229394				
572.057	-1.53697369121103				
572.641	-5.23244130535653				
573.225	-4.78109687965355				
573.809	7.73894724952994				
574.393	3.71974071708789				
574.977	-5.58123559630553				
575.561	-3.10776752532987				
576.145	0.934426854929696				
576.73	7.95780609127838				
577.314	11.2510357632139				
577.898	-0.625739120014804				
578.482	9.56119325233292				
579.067	4.3980002031837				
579.651	-5.35038396205578				
580.236	-6.30739614952374				
580.82	-3.79309034044345				
581.405	8.54306141829229				
581.989	2.05756814144672				
582.574	3.32721977531323				
583.158	3.80630218470258				
583.743	-4.44438979274863				
584.328	-5.72026787356949				
584.912	-0.954553197856118				
585.497	3.66550036004423				
586.082	2.55420994830171				
586.667	5.11245655546692				
587.251	-3.99730457994358				
587.836	-3.04043618757099				
588.421	-2.88621059767824				
589.006	1.76815448200913				
589.591	5.96096993314401				
590.176	-2.90541329678605				
590.761	5.33193083702156				
591.346	-5.17400402939204				
591.931	-6.14720449074655				
592.516	5.34036367057483				
593.102	-5.99238841807963				
593.687	-0.32482241901849				
594.272	2.11558527536803				
594.857	-5.37620853900134				
595.443	-14.0335499045125				
596.028	4.4135566914332				
596.613	3.92581036219771				
597.199	-9.00089591079225				
597.784	0.818325112233391				
598.369	1.3116316698178				
598.955	4.76776119335873				
599.54	-1.48227761892594				
600.126	4.78359020247361				
600.712	4.12782065378373				
601.297	-14.0602047380402				
601.883	-0.33170440604782				
602.469	11.6241405177105				
603.054	2.82573453466032				
603.64	0.83246796304439				
604.226	1.50120331950627				
604.812	-6.51922018051567				
605.397	2.01030608917367				
605.983	1.84685279936415				
606.569	1.84888042675888				
607.155	-0.504782990853926				
607.741	10.4437773383245				
608.327	4.55621438407488				
608.913	-7.10385246552036				
609.499	-0.169371094981406				
610.085	4.57878576956805				
610.671	14.0979091019806				
611.257	-3.9141908813614				
611.844	-1.36468249487886				
612.43	-1.02574166107931				
613.016	3.25492151575563				
613.602	3.25776955605058				
614.189	1.54517575529907				
614.775	2.75307264597621				
615.361	-1.3804930345196				
615.948	5.88635458633044				
616.534	-1.73252269158003				
617.121	-0.346725754398927				
617.707	1.21510022938675				
618.294	9.20898411271564				
618.88	3.99897546185456				
619.467	2.0915769813656				
620.053	-7.51653513342122				
620.64	4.55681150531139				
621.227	11.4099316821581				
621.813	1.05313198627805				
622.4	2.8109818558219				
622.987	3.87056547251414				
623.574	0				
624.161	-1.59308970260722				
624.747	-1.24065085769226				
625.334	-10.1156381087425				
625.921	12.0837907576611				
626.508	0.534221375924614				
627.095	-8.38773278616178				
627.682	-8.40515674796167				
628.269	-0.35835828891644				
628.856	2.15395160225001				
629.443	9.17128065509498				
630.03	1.08095744805349				
630.618	2.5248377181079				
631.205	3.43048638820566				
631.792	0				
632.379	7.41976753417206				
632.966	-7.2441433123376				
633.554	-6.69830522732797				
634.141	-2.35405674294079				
634.728	-3.08597114551712				
635.316	-3.81561401639571				
635.903	0.726496282443265				
636.491	-3.09358035233437				
637.078	-1.64136076455338				
637.666	-2.55551560874678				
638.253	-7.49062981928836				
638.841	7.3143123521601				
639.428	-1.28156307450622				
640.016	-0.366665415656574				
640.604	5.88120917069649				
641.191	6.26268611971197				
641.779	-3.50572492644863				
642.367	-3.14181184404524				
642.954	5.18290689878858				
643.542	-7.23234658495162				
644.13	6.69114080586519				
644.718	6.34269509281781				
645.306	-0.187072864371458				
645.894	-0.937233703052718				
646.481	0.375686331248596				
647.069	1.50574363447102				
647.657	-0.565159272598674				
648.245	-4.7168946880174				
648.833	4.72836004111186				
649.422	10.6241934758177				
650.01	1.52276182296755				
650.598	-1.71676342732575				
651.186	5.5455205473006				
651.774	5.17976648089483				
652.362	3.65539499386369				
652.95	2.31468058853066				
653.539	-4.06151669541188				
654.127	5.81419991022212				
654.715	-1.16274621343989				
655.304	-6.7915184531062				
655.892	-3.11273810282246				
656.48	0.584708172545454				
657.069	-2.34264054575297				
657.657	-5.47356980676006				
658.246	-2.74013339786486				
658.834	3.91853174892354				
659.423	-3.53550490064694				
660.011	-2.1671920212102				
660.6	4.14831018463267				
661.188	-1.58446538902124				
661.777	-0.992886373935464				
662.366	-5.57157774555813				
662.954	8.96958351520486				
663.543	1.19803943479255				
664.132	-3.19930788101184				
664.721	9.80049818431102				
665.309	5.00592368762966				
665.898	-5.81800862981148				
666.487	4.81947488827807				
667.076	3.21619559911089				
667.665	7.45758012107877				
668.254	-4.64792479164738				
668.843	10.9398252076532				
669.432	14.403927080689				
670.021	-1.62457241335347				
670.61	6.90887295126416				
671.199	-10.9841050465592				
671.788	14.6712028422674				
672.377	11.8392422122348				
672.966	11.4510748040336				
673.555	8.18542114010575				
674.144	16.3821147742277				
674.734	1.43445579390852				
675.323	26.4758738507026				
675.912	14.8102304096825				
676.501	14.0212662141238				
677.091	9.29796294879256				
677.68	8.05799415664751				
678.269	13.6458355498761				
678.859	7.24742066793531				
679.448	17.4179794619871				
680.038	11.4201736973531				
680.627	12.8934227355411				
681.216	10.8306616113083				
681.806	7.7187182354039				
682.395	6.90144843938952				
682.985	11.1167295079246				
683.575	10.2728545674799				
684.164	11.7419592455195				
684.754	22.899142018137				
685.343	22.108115332684				
685.933	19.8405852129463				
686.523	25.1502500387865				
687.113	35.3477576489456				
687.702	35.2380442198644				
688.292	42.355748841074				
688.882	54.4062670062422				
689.472	60.4440902507964				
690.062	77.3720874045958				
690.651	103.729245294465				
691.241	118.004778376955				
691.831	135.458116000528				
692.421	175.065852357354				
693.011	188.929240311583				
693.601	198.387625829724				
694.191	237.907922997993				
694.781	243.469509371913				
695.371	279.952419774179				
695.961	290.45732564371				
696.551	311.302015902474				
697.141	332.376655288582				
697.732	346.405826068305				
698.322	348.715559561922				
698.912	380.472721539097				
699.502	382.765085498714				
700.092	382.786985568964				
700.683	378.862377792946				
701.273	391.559471734413				
701.863	376.977605317372				
702.454	362.592569869638				
703.044	352.199150556869				
703.634	332.807230657658				
704.225	315.676882721577				
704.815	289.452428883855				
705.406	277.102568557835				
705.996	269.274677100151				
706.587	222.866728318086				
707.177	197.701656483608				
707.768	194.293176938051				
708.358	165.97049275958				
708.949	143.076640744769				
709.539	128.652963894277				
710.13	104.901890097999				
710.721	84.8748190800872				
711.311	70.6994791639814				
711.902	52.3213191742911				
712.493	46.1727593850583				
713.083	32.8809587587355				
713.674	25.5979282442324				
714.265	12.2501489411952				
714.856	12.9623469795109				
715.446	18.0991259350333				
716.037	9.77163728596805				
716.628	11.6424868047862				
717.219	7.22664877889131				
717.81	4.67030416357755				
718.401	3.51141824186581				
718.992	-3.52140070914774				
719.583	5.64173558245185				
720.174	0.235352900169988				
720.765	11.3073200285402				
721.356	-3.53320905042776				
721.947	7.76714920020271				
722.538	10.3805843001968				
723.129	-0.473266741710682				
723.72	-3.56470742810464				
724.311	-12.8673833429266				
724.902	1.19292001044647				
725.494	1.19401414756087				
726.085	14.104334381701				
726.676	-0.71884551814884				
727.267	5.75724022413789				
727.858	4.31647859456743				
728.45	-11.0519383707724				
729.041	6.02224642016628				
729.632	7.24846217069306				
730.224	8.72140519765605				
730.815	3.64159931739327				
731.406	-10.6961466148043				
731.998	-1.21664261215485				
732.589	-8.50841541133311				
733.181	-9.00067560802274				
733.772	-1.46594828712957				
734.364	-1.71457076070458				
734.955	2.45269563100527				
735.547	0.491808124349721				
736.138	8.38734565336261				
736.73	-6.19697790829836				
737.321	-2.48460582750923				
737.913	8.94707727775389				
738.504	-5.97148845646793				
739.096	6.97653390383186				
739.688	1.24834775873521				
740.279	-7.25168865191996				
740.871	6.75851261132385				
741.463	-15.0661865219005				
742.054	-17.3865129432239				
742.646	11.8566735753211				
743.238	-7.58068024964208				
743.83	7.59900440117244				
744.422	-0.253812390335419				
745.013	-0.508594525225691				
745.605	15.5774357090012				
746.197	4.87026844902353				
746.789	-16.1957033171671				
747.381	3.60775980898079				
747.973	9.29706811372343				
748.565	2.83737285129486				
749.157	5.41326392441152				
749.749	4.64596733093375				
750.341	2.33083162093048				
750.933	3.38323286966272				
751.525	-1.83352595605484				
752.117	2.89515484845273				
752.709	7.6136257170671				
753.301	1.83703784701202				
753.893	8.14875391410283				
754.485	2.63767706439439				
755.077	3.70717063687612				
755.669	-14.362152866391				
756.261	19.7496788848959				
756.854	-10.9674260304802				
757.446	-4.56216600620756				
758.038	11.8509938038831				
758.63	5.68591388021203				
759.222	-3.26597844471269				
759.815	-4.92403807333645				
760.407	11.4735426080829				
760.999	0.815992862608768				
761.592	-5.17172190937693				
762.184	9.81997708838036				
762.776	3.01623505849014				
763.369	-8.83996753369973				
763.961	0.278665457872391				
764.553	22.4958413782579				
765.146	6.37019976655623				
765.738	1.66486827833082				
766.331	-1.11196990505885				
766.923	10.5832512217735				
767.516	3.64034199107528				
768.108	1.96946501429083				
768.701	0.843448804789339				
769.293	1.40499008288145				
769.886	6.46065206794281				
770.478	0.843544895261995				
771.071	0.281601812853469				
771.663	-10.7291740052436				
772.256	23.1375236833123				
772.849	12.0727522372352				
773.441	-6.47574003746893				
774.034	1.69918526851412				
774.627	-1.43225048746445				
775.219	-6.6380944399884				
775.812	13.5796703024392				
776.405	4.06114133835451				
776.998	7.29054922851339				
777.59	5.25888268588349				
778.183	-0.585775206783447				
778.776	27.6402001588463				
779.369	12.109761090856				
779.961	15.1352222963949				
780.554	11.7944850452675				
781.147	9.67633851909725				
781.74	19.6378373378317				
782.333	1.46834308128274				
782.926	13.559488902446				
783.519	14.2270349335023				
784.112	26.8119876391201				
784.705	17.0219345040194				
785.297	12.8163510132079				
785.89	18.0676199907757				
786.483	16.9685490258001				
787.076	6.89301527474457				
787.669	23.3904040277583				
788.262	17.3950578146436				
788.855	28.4783535710693				
789.449	29.0875189373285				
790.042	17.114741339908				
790.635	25.4859273097706				
791.228	15.5475933218834				
791.821	27.3233804268272				
792.414	33.5340645554851				
793.007	16.8955150012654				
793.6	34.5065359699217				
794.193	23.7376053592893				
794.787	28.2421793434152				
795.38	31.9348593355976				
795.973	27.7134688593306				
796.566	11.8784365648615				
797.159	30.4777988524762				
797.753	24.0767324881192				
798.346	20.3522341808576				
798.939	15.1480574077838				
799.532	15.8570754819074				
800.126	19.8370518688534				
800.719	17.7267272019541				
801.312	6.33097400069789				
801.906	29.3335128699002				
802.499	13.9281428015354				
803.092	16.0384674684347				
803.686	22.7915064025124				
804.279	18.3598246020239				
804.873	24.2687336693419				
805.466	1.68825973351944				
806.059	10.1295584011166				
806.653	9.91852593442669				
807.246	4.64271426717845				
807.84	7.38613633414754				
808.433	8.23026620090726				
809.027	9.49646100104684				
809.62	12.4509155347059				
810.214	9.91852593442669				
810.807	-5.6978766006281				
811.401	15.6164025350548				
811.994	10.5516233344965				
812.588	2.32135713358923				
813.181	2.32135713358923				
813.775	13.2950454014656				
814.369	10.1295584011166				
814.962	1.47722726682951				
815.556	4.85374673386838				
816.149	0.422064933379859				
816.743	2.95445453365902				
817.337	2.74342206696909				
817.93	2.95445453365902				
818.524	-3.79858440041873				
819.118	5.06477920055831				
819.711	-10.3405908678066				
820.305	-7.17510386745761				
820.899	11.8178181346361				
821.493	5.90890906731803				
822.086	-1.68825973351944				
822.68	6.11994153400796				
823.274	4.00961686710866				
823.868	17.937759668644				
824.461	-4.22064933379859				
825.055	9.28542853435691				
825.649	-1.26619480013958				
