Wavelength, nm	Sc/Rc	Wavelength	Signal	Baseline_Result	Baseline_Y
Raw CCD	counts/uA	nm	Sc/Rc		
	Fully Corrected Emission Spectrum		Water Raman		Baseline of "Signal"
246.813	-2.31889142500891	365	122.519899118523	365	125.043727461678
247.37	5.05939947274672	365.5	124.350428020235	365.5	124.350428020235
247.927	9.69718232276455	366	119.835117014531	366	123.657128578793
248.484	3.1621246704667	366.5	117.159364854509	366.5	122.963829137351
249.041	-2.31889142500891	367	122.111802050529	367	122.270529695908
249.599	12.4376903705024	367.5	130.481321795843	367.5	121.577230254466
250.156	2.69238164570098	368	132.271857224022	368	120.883930813023
250.713	4.07909226073063	368.5	126.585058526569	368.5	120.190631371581
251.27	4.01566335229725	369	124.555739581316	369	119.497331930138
251.828	5.37354219377034	369.5	119.082174240499	369.5	118.804032488696
252.385	6.28186275083476	370	117.504583360959	370	118.110733047254
252.943	1.62686147333089	370.5	134.231118939964	370.5	117.417433605811
253.501	6.02117427850887	371	138.646595472852	371	116.724134164369
254.058	-8.08128654703096	371.5	129.684533780946	371.5	116.030834722926
254.616	-1.39150619747316	372	130.907069951012	372	115.337535281484
255.174	-3.03322271053679	372.5	134.313335889644	372.5	114.644235840041
255.732	-1.64904536430026	373	127.529949651673	373	113.950936398599
256.29	-8.76041213206645	373.5	126.447617572074	373.5	113.257636957157
256.847	6.87227673062628	374	132.625244187248	374	112.564337515714
257.406	-0.237552261912764	374.5	123.637814192109	374.5	111.871038074272
257.964	10.2454960557428	375	116.326956680467	375	111.177738632829
258.522	-4.07365485552214	375.5	114.5191097199	375.5	110.484439191387
259.08	-0.481879811450311	376	108.758062310468	376	109.791139749945
259.638	5.55935688543537	376.5	108.615806400996	376.5	109.097840308502
260.196	0.728270457681921	377	113.017644731962	377	108.40454086706
260.755	-6.10780069505437	377.5	98.0400677669728	377.5	107.711241425617
261.313	-9.09432999413817	378	89.8783248237875	378	107.017941984175
261.872	12.6082081015777	378.5	102.741689932234	378.5	106.324642542732
262.43	-3.48517461662173	379	99.5065873633321	379	105.63134310129
262.989	5.51658589026831	379.5	92.8982863937377	379.5	104.938043659848
263.548	5.55960456146816	380	90.2313774990392	380	104.244744218405
264.106	-10.4265906397764	380.5	84.0813695102646	380.5	103.551444776963
264.665	19.0787157664992	381	89.2794258917588	381	102.85814533552
265.224	1.27429295373296	381.5	84.6435666749482	381.5	102.164845894078
265.783	5.11864815692391	382	85.3999950791114	382	101.471546452635
266.342	2.05888304971282	382.5	79.1833109749885	382.5	100.778247011193
266.901	-1.55407840661877	383	82.7113158301361	383	100.084947569751
267.46	-18.2025825430638	383.5	90.0519124674837	383.5	99.3916481283081
268.019	14.8712559380906	384	83.8701849486084	384	98.6983486868657
268.578	11.4848069002788	384.5	82.2011517147119	384.5	98.0050492454233
269.137	-2.35183960063234	385	94.9034275225557	385	97.3117498039809
269.697	-3.14595211216099	385.5	93.8816305598233	385.5	96.6184503625384
270.256	1.83902269146793	386	115.272644471393	386	95.925150921096
270.815	13.14640944012	386.5	131.869235343998	386.5	95.2318514796536
271.375	11.2995991098238	387	159.755821540281	387	94.5385520382112
271.934	19.4219362049553	387.5	192.618346418451	387.5	93.8452525967687
272.494	18.0376083079127	388	228.683525793009	388	93.1519531553263
273.054	13.8055588847587	388.5	276.476758424727	388.5	92.4586537138839
273.613	8.10637878899469	389	332.406249753138	389	91.7653542724415
274.173	8.90756486790308	389.5	406.106518857877	389.5	91.072054830999
274.733	-2.09043921635568	390	485.69316633323	390	90.3787553895566
275.293	19.3284447871901	390.5	575.123283043588	390.5	89.6854559481142
275.853	5.49375297710251	391	683.732047088063	391	88.9921565066718
276.413	10.9940905572165	391.5	788.641921960315	391.5	88.2988570652293
276.973	8.37855886780578	392	891.578059913812	392	87.6055576237869
277.533	12.7932546647404	392.5	1014.07114935172	392.5	86.9122581823445
278.093	15.8799341276071	393	1147.58038268469	393	86.2189587409021
278.653	9.60844308081504	393.5	1273.24831520861	393.5	85.5256592994596
279.213	23.8282044291661	394	1390.11279258249	394	84.8323598580172
279.774	14.7196812651611	394.5	1506.95930778185	394.5	84.1390604165748
280.334	4.37775764555691	395	1606.05858701656	395	83.4457609751324
280.895	6.67714788602352	395.5	1696.08529004285	395.5	82.7524615336899
281.455	11.4953934908297	396	1769.46251326122	396	82.0591620922475
282.016	19.3020858693146	396.5	1826.86131674742	396.5	81.3658626508051
282.576	21.8223788284121	397	1877.21747313072	397	80.6725632093627
283.137	21.7692654586352	397.5	1883.40520470726	397.5	79.9792637679202
283.698	22.1146979746258	398	1862.64507434497	398	79.2859643264778
284.258	9.24412817333043	398.5	1829.24117197497	398.5	78.5926648850354
284.819	-2.98561694135486	399	1773.31799529732	399	77.899365443593
285.38	7.68313767641945	399.5	1733.33059829455	399.5	77.2060660021505
285.941	8.14848445083668	400	1664.83762264408	400	76.5127665607081
286.502	10.0515255111618	400.5	1551.72740531848	400.5	75.8194671192657
287.063	16.0620428010322	401	1453.46458738846	401	75.1261676778232
287.624	16.4638513323544	401.5	1333.7570053251	401.5	74.4328682363808
288.185	19.9929707796214	402	1217.55669387229	402	73.7395687949384
288.747	6.23132062727659	402.5	1095.24514334329	402.5	73.046269353496
289.308	19.580948889429	403	967.57276267062	403	72.3529699120536
289.869	21.9138963565014	403.5	853.223409903918	403.5	71.6596704706111
290.431	20.8096664340739	404	740.430001200858	404	70.9663710291687
290.992	24.8479844501042	404.5	627.951633004141	404.5	70.2730715877263
291.554	25.8827188645575	405	534.808824941848	405	69.5797721462839
292.115	12.7643440933156	405.5	446.571996421302	405.5	68.8864727048415
292.677	16.8967432297157	406	376.564849961208	406	68.193173263399
293.238	28.37336005103	406.5	301.384669645052	406.5	67.4998738219566
293.8	9.18648940977833	407	248.197065435886	407	66.8065743805142
294.362	17.7941215387014	407.5	202.92652105422	407.5	66.1132749390717
294.924	10.1840249395146	408	162.298323277761	408	65.4199754976293
295.486	17.823155269574	408.5	132.111709987401	408.5	64.7266760561869
296.048	16.6551537250284	409	100.28617321208	409	64.0333766147445
296.61	24.010555822525	409.5	85.2079344177737	409.5	63.340077173302
297.172	27.0609603661939	410	76.4176061379556	410	62.6467777318596
297.734	19.1527253101279	410.5	66.1885977341863	410.5	61.9534782904172
298.296	8.43199884389528	411	59.5257895593713	411	61.2601788489748
298.858	23.2257106878847	411.5	55.9916859799988	411.5	60.5668794075323
299.42	23.6073802703943	412	45.9011017978606	412	59.8735799660899
299.983	23.5512563845128	412.5	38.2832046716901	412.5	59.1802805246475
300.545	25.4253265357673	413	43.5598768154841	413	58.4869810832051
301.108	22.9301474127814	413.5	37.5773808807745	413.5	57.7936816417626
301.67	34.248845020307	414	30.0035176396392	414	57.1003822003202
302.233	17.1893553348188	414.5	24.1381347764569	414.5	56.4070827588778
302.795	24.4729241623662	415	21.776577750149	415	55.7137833174354
303.358	30.8816973478836	415.5	18.3591566462216	415.5	55.0204838759929
303.921	19.1851709653405	416	20.1429343541902	416	54.3271844345505
304.484	18.7552438203083	416.5	24.1998574835896	416.5	53.6338849931081
305.046	40.3185784312038	417	15.6022384977578	417	52.9405855516657
305.609	33.1214971917301	417.5	13.5152882485478	417.5	52.2472861102232
306.172	26.1858196374996	418	21.8456613806366	418	51.5539866687808
306.735	38.1666055269651	418.5	16.1887638124197	418.5	50.8606872273384
307.298	55.8692411557278	419	12.9163381101051	419	50.167387785896
307.861	48.2671319359659	419.5	11.4482694587847	419.5	49.4740883444535
308.425	53.6306788242455	420	6.61126646151591	420	48.7807889030111
308.988	51.7241650199604	420.5	7.30925642795677	420.5	48.0874894615687
309.551	66.377619403414	421	14.2223023520551	421	47.3941900201263
310.114	77.6075707442143	421.5	21.4746009179352	421.5	46.7008905786838
310.678	76.7736444194929	422	6.76870948825681	422	46.0075911372414
311.241	82.6752160419121	422.5	9.07231032594608	422.5	45.314291695799
311.805	105.124997183604	423	10.3504037006964	423	44.6209922543566
312.368	107.723862500619	423.5	14.5381011498478	423.5	43.9276928129141
312.932	117.773116908855	424	18.7693517554343	424	43.2343933714717
313.496	121.898341716519	424.5	6.60493796564066	424.5	42.5410939300293
314.059	132.455537200397	425	4.33855556445042	425	41.8477944885869
314.623	142.045511979437	425.5	5.37450744649888	425.5	41.1544950471444
315.187	161.784655180478	426	6.8294135960746	426	40.461195605702
315.751	162.901621134424	426.5	7.03725079275982	426.5	39.7678961642596
316.315	183.214391282396	427	6.66935309404037	427	39.0745967228172
316.879	199.824106739346	427.5	5.22147568885596	427.5	38.3812972813747
317.443	210.472264875058	428	6.03252833633779	428	37.6879978399323
318.007	216.222061543888	428.5	8.21191727626603	428.5	36.9946983984899
318.571	232.630917002819	429	3.13263457729013	429	36.3013989570475
319.135	265.16495511005	429.5	2.87609557247934	429.5	35.608099515605
319.7	272.257313674596	430	7.79688706552375	430	34.9148000741626
320.264	280.973854429146	430.5	13.9544231953089	430.5	34.2215006327202
320.828	280.071363950783	431	5.94761303966765	431	33.5282011912778
321.393	297.125747207008	431.5	1.03635786516914	431.5	32.8349017498353
321.957	282.958090849956	432	13.2590948129353	432	32.1416023083929
322.522	305.143171219234	432.5	19.9355846937871	432.5	31.4483028669505
323.086	313.301082465547	433	20.6120696970744	433	30.7550034255081
323.651	316.106490716497	433.5	27.2620844579616	433.5	30.0617039840656
324.216	310.040543178287	434	22.3962844659978	434	29.3684045426232
324.78	313.121728035894	434.5	24.6480973368334	434.5	28.6751051011808
325.345	324.648233385897	435	23.7433713081279	435	27.9818056597384
325.91	311.898634961477	435.5	17.5581062156585	435.5	27.288506218296
326.475	308.598977317699	436	19.7025305874391	436	26.5952067768535
327.04	316.449370502055	436.5	18.0294060971281	436.5	25.9019073354111
327.605	312.737347704749	437	12.0101367811087	437	25.2086078939687
328.17	317.268923376897	437.5	12.6348110440074	437.5	24.5153084525263
328.735	321.187292449674	438	5.57719000797061	438	23.8220090110838
329.3	315.981846200709	438.5	2.34997300429335	438.5	23.1287095696414
329.866	310.055732114786	439	2.57664277585303	439	22.435410128199
330.431	315.797045633857	439.5	3.50000108620346	439.5	21.7421106867565
330.996	307.951073877517	440	3.70446660969336	440	21.0488112453141
331.562	317.612868629657	440.5	-3.68086084149872	440.5	20.3555118038717
332.127	321.470419379029	441	7.31027890692781	441	19.6622123624293
332.693	327.396023352486	441.5	11.2139667967484	441.5	18.9689129209869
333.258	323.19055782003	442	0.738551506223899	442	18.2756134795444
333.824	320.239973673845	442.5	0.772970471841293	442.5	17.582314038102
334.389	333.237601937798	443	8.53171541252501	443	16.8890145966596
334.955	331.992373441967	443.5	8.98144508222121	443.5	16.1957151552172
335.521	329.171385542182	444	7.39484966845487	444	15.5024157137747
336.087	350.271433047329	444.5	3.78212688775903	444.5	14.8091162723323
336.653	343.769284587476	445	-0.64612378389316	445	14.1158168308899
337.218	343.90415392045	445.5	4.05619792898672	445.5	13.4225173894475
337.784	338.460044391926	446	7.33715013687801	446	12.729217948005
338.35	337.505534423768	446.5	2.34186445160859	446.5	12.0359185065626
338.917	343.00101713909	447	5.25041168374186	447	11.3426190651202
339.483	342.01996005701	447.5	13.4000119693799	447.5	10.6493196236777
340.049	362.280154031007	448	6.61256696946325	448	9.95602018223533
340.615	366.621798996078	448.5	5.62292509229382	448.5	9.26272074079291
341.181	412.857831655959	449	3.46606921149258	449	8.56942129935047
341.748	452.10622784953	449.5	8.44927203608407	449.5	7.87612185790806
342.314	548.608418482879	450	7.18282241646563	450	7.18282241646564
342.881	750.072149579752				
343.447	1112.4253462033				
344.014	1688.32505531169				
344.58	2500.17544956374				
345.147	3550.20615935076				
345.714	4832.22660691527				
346.28	6335.56309543377				
346.847	8047.27959013048				
347.414	9894.51146034493				
347.981	11764.7501090234				
348.548	13126.7804599979				
349.115	13127.261941732				
349.682	13151.4972845893				
350.249	13137.5539588874				
350.816	13216.384341927				
351.384	13222.7122708029				
351.951	13213.2394520235				
352.518	13249.9654323935				
353.086	12764.6423711213				
353.653	10849.4784112818				
354.221	8955.5107627952				
354.788	7103.89226216311				
355.356	5440.41250128107				
355.923	4025.93588146509				
356.491	2857.83886674958				
357.059	1914.94695394115				
357.627	1202.17005798936				
358.195	709.347342436742				
358.762	407.663278572338				
359.33	271.417477497571				
359.898	223.061786942545				
360.466	185.282114475977				
361.035	178.09706113768				
361.603	169.188556780864				
362.171	163.484674277976				
362.739	159.312808051961				
363.308	131.600744638229				
363.876	135.393922677265				
364.444	125.780362704761				
365.013	122.564652087523				
365.581	124.139868113695				
366.15	118.239440713575				
366.719	118.464049905757				
367.287	127.000786966557				
367.856	133.124034164691				
368.425	127.167634422168				
368.994	124.595613015452				
369.562	118.36868631304				
370.131	120.119335321655				
370.7	139.855938291576				
371.269	133.046343044524				
371.838	129.238606739715				
372.408	134.658969377921				
372.977	127.818266516255				
373.546	126.915924851566				
374.115	132.380062226574				
374.685	119.10515680634				
375.254	115.967938254652				
375.823	110.976628341669				
376.393	107.343694367625				
376.963	113.395306676644				
377.532	96.9908728543097				
378.102	91.1318486038216				
378.671	105.368089637622				
379.241	93.7015980727834				
379.811	93.1872159227232				
380.381	83.8177305344346				
380.951	89.2368246208901				
381.521	84.5358502562173				
382.091	85.0069737588333				
382.661	78.1568980599571				
383.231	87.3674328412519				
383.801	88.0185407798262				
384.371	79.7984232152419				
384.941	94.4668874468741				
385.512	94.0976583555206				
386.082	118.934740800997				
386.652	137.846258385564				
387.223	175.515158465182				
387.793	211.736178507563				
388.364	263.167429320634				
388.934	323.902387863735				
389.505	406.884673085301				
390.076	498.38815021282				
390.646	604.895107094365				
391.217	731.59901540718				
391.788	845.872725300606				
392.359	977.544775398236				
392.93	1129.11575569634				
393.501	1273.48817435688				
394.072	1406.98157568167				
394.643	1537.85971215927				
395.214	1644.43888004087				
395.785	1742.05395885615				
396.356	1809.39592733699				
396.928	1872.53592833546				
397.499	1883.42748043806				
398.07	1858.71979178809				
398.642	1815.60368227627				
399.213	1751.77862068761				
399.785	1705.47502218544				
400.356	1581.68301742742				
400.928	1468.99177046024				
401.499	1333.99722901539				
402.071	1200.87721223367				
402.643	1058.70911612508				
403.215	915.858360142877				
403.787	790.540846771318				
404.358	657.301502347798				
404.93	547.735530736901				
405.502	446.260155803088				
406.074	365.97282083016				
406.646	282.171925233276				
407.219	229.86228768844				
407.791	176.536859193905				
408.363	141.221900584464				
408.935	103.529900759944				
409.508	85.0526351257413				
410.08	74.9096136066294				
410.652	63.4829278186417				
411.225	57.9813724069651				
411.797	51.3819669738744				
412.37	38.1472712629865				
412.943	43.4305423855872				
413.515	37.321572283103				
414.088	28.8305147532472				
414.661	22.9706405762066				
415.234	20.6684853435337				
415.806	17.7415442412633				
416.379	24.7298788065359				
416.952	16.4092907694487				
417.525	13.8004483844361				
418.098	22.2749320432836				
418.671	13.4066918506803				
419.244	13.3676358151171				
419.818	7.82631918627562				
420.391	6.71923863621865				
420.964	13.4346445130523				
421.537	21.0601357342608				
422.111	4.67218905478337				
422.684	11.8057169739818				
423.258	9.76567472221167				
423.831	20.430225147974				
424.405	8.34168339963639				
424.978	4.31624048819007				
425.552	5.52853226183705				
426.126	7.04145901908651				
426.699	6.8815028701099				
427.273	6.1062809778139				
427.847	5.02485001902509				
428.421	8.49588081410498				
428.995	3.17300286861268				
429.569	3.31727175755438				
430.143	9.79066299508602				
430.717	12.978473222804				
431.291	-0.150897635740947				
431.865	9.93889703210472				
432.439	19.7029564631181				
433.014	20.7356579016636				
433.588	27.4824897472456				
434.162	21.1798665644007				
434.737	26.6454864937478				
435.311	18.5134267001464				
435.886	19.2249043405606				
436.46	18.4572734671529				
437.035	11.8465863160688				
437.609	12.122464560627				
438.184	2.84090677570886				
438.759	3.14411563840741				
439.333	2.2453168111736				
439.908	4.93313532299184				
440.483	-3.73265514647572				
441.058	8.64742409729316				
441.633	9.36095540817332				
442.208	-2.07441663814676				
442.783	6.21275090042792				
443.358	9.16936633673687				
443.933	7.69584032418235				
444.508	3.69845880674283				
445.083	-0.59128937153953				
445.659	6.04718685123187				
446.234	5.7391840217802				
446.809	1.61500207014722				
447.385	13.3287333152502				
447.96	7.01363874278036				
448.536	5.53760408848218				
449.111	3.78020308105344				
449.687	9.73549297828374				
450.262	4.35701029573223				
450.838	5.37160012670525				
451.414	2.90055750703452				
451.989	4.77973445778419				
452.565	2.60336555205816				
453.141	5.34517832734321				
453.717	0.866565682772809				
454.293	1.5876175644821				
454.869	4.32510494887356				
455.445	5.18842476288487				
456.021	10.0870635488835				
456.597	5.17965148270268				
457.173	-2.58609502901429				
457.749	8.03590579319528				
458.325	11.4754675745618				
458.902	1.86524095756715				
459.478	6.87001298575453				
460.054	10.1341721304569				
460.631	14.2775673019393				
461.207	4.70933260310018				
461.784	-1.42442934898824				
462.36	7.39946244528682				
462.937	4.40889719758913				
463.514	9.6518575181442				
464.09	-2.12493154085575				
464.667	10.6166100997668				
465.244	8.34514852956513				
465.82	10.3167920502398				
466.397	4.51507344283812				
466.974	1.26733691422441				
467.551	3.09173656555484				
468.128	4.20909169246769				
468.705	-0.841516575074622				
469.282	0.560508304999077				
469.859	6.436436016291				
470.436	5.03606389580167				
471.014	5.03672014517341				
471.591	-4.47019895606592				
472.168	1.67476566061013				
472.745	-0.558565872237726				
473.323	6.28301934019864				
473.9	-5.58110906086576				
474.478	9.33968123078461				
475.055	3.76076300188789				
475.633	-4.60090806619702				
476.21	9.34224540616368				
476.788	-2.08865741265957				
477.365	3.06120138948845				
477.943	0.695508728281814				
478.521	-0.278162204401328				
479.099	0.417128757702765				
479.676	-3.61160447648877				
480.254	4.02795380549393				
480.832	4.58825940957116				
481.41	5.42429776376945				
481.988	1.25182154941102				
482.566	1.80929554666298				
483.144	7.38155575663723				
483.722	9.89783504287813				
484.301	0.13945643157106				
484.879	3.76465282236619				
485.457	-0.418493421615042				
486.035	9.63159326287582				
486.614	8.79993932172065				
487.192	10.7637737793001				
487.77	1.39926287191572				
488.349	6.30046864830265				
488.927	7.56321000946507				
489.506	-4.0654068983398				
490.085	5.89349347442909				
490.663	4.07264677948687				
491.242	5.89902922227695				
491.821	7.85867769301934				
492.399	6.45476681886265				
492.978	4.49140773746714				
493.557	6.31078335468098				
494.136	3.36440846255718				
494.715	6.59625122128859				
495.294	-1.68520904162183				
495.873	9.69111158735284				
496.452	-0.280670677520616				
497.031	0.140196138246744				
497.61	0.280592679826573				
498.189	0.701763370059328				
498.768	-3.08700673010641				
499.347	4.34453231569638				
499.927	3.63690943845161				
500.506	7.42819442038009				
501.085	4.21378214314294				
501.665	-5.47930806156293				
502.244	2.38728650248417				
502.824	0.701108295718008				
503.403	4.90858519098645				
503.983	1.12295749161631				
504.562	-1.26436587057272				
505.142	3.09188492487235				
505.722	2.52737301766126				
506.301	4.06775796696432				
506.881	-5.60457365360069				
507.461	0.84119634253717				
508.041	-8.98082527749717				
508.621	0				
509.201	4.06022000793407				
509.781	-2.23644110823276				
510.361	0.698357085840215				
510.941	-0.139640407623216				
511.521	4.6132694449413				
512.101	-0.979451707238652				
512.681	1.67765696599231				
513.261	2.37509672479858				
513.841	3.63083304799159				
514.422	3.07192355134677				
515.002	4.74768071729257				
515.582	-2.23700260095972				
516.163	0.978972934404415				
516.743	1.25594129691258				
517.324	-0.696686673633615				
517.904	-0.556798790127955				
518.485	-1.8098917086868				
519.065	1.39261524299387				
519.646	11.4126625249443				
520.227	7.09218770337424				
520.807	5.1390816165734				
521.388	5.83669101227853				
521.969	-2.64412850850008				
522.55	-2.64394716173164				
523.131	5.28622977381851				
523.712	-0.833937502331068				
524.292	-4.30666895258743				
524.873	-5.9733867741947				
525.454	-0.694282635142686				
526.036	-1.11034408620475				
526.617	-3.33322148900356				
527.198	-2.63934549374924				
527.779	-0.416461998421135				
528.36	-9.16192998899502				
528.941	4.8603811801848				
529.523	1.24994985757746				
530.104	-0.277980582179566				
530.685	-0.837218233365065				
531.267	1.11830140746796				
531.848	-2.37473454409591				
532.43	6.42989951404802				
533.011	-0.139934493896071				
533.593	2.65953792496094				
534.174	1.12081339063803				
534.756	-4.21280287116631				
535.338	-3.37697631285027				
535.919	-2.53719676659911				
536.501	10.8628919950761				
537.083	4.3757658798126				
537.665	7.90107514333181				
538.247	9.18163458476735				
538.828	11.3384129868392				
539.41	7.81288532661026				
539.992	0.284621344747085				
540.574	6.27255838007086				
541.156	13.5638278954515				
541.739	15.8640091205119				
542.321	6.72656374516275				
542.903	16.7736714519361				
543.485	14.9276077495923				
544.067	5.46069212229998				
544.649	11.6615952034607				
545.232	6.06242530543393				
545.814	4.34622759960856				
546.397	3.48341840608468				
546.979	5.23032841152105				
547.561	2.47237745860555				
548.144	10.6220965101334				
548.726	0				
549.309	-1.01654068496375				
549.892	3.33705494118093				
550.474	4.93719549795242				
551.057	6.68693520988521				
551.64	9.29959712699498				
552.222	9.59460079122941				
552.805	10.0497070619213				
553.388	-3.50020010830464				
553.971	-5.69378475112865				
554.554	2.19015694682769				
555.137	-7.5979545501652				
555.72	-1.4652856897339				
556.303	2.34901912196026				
556.886	0.440939027890512				
557.469	-2.50347559757222				
558.052	-1.77080998766093				
558.635	5.46824855137859				
559.218	4.14493723280936				
559.801	-2.66957780046207				
560.384	5.19369226162167				
560.968	1.7804569129844				
561.551	-0.297526704338388				
562.134	-1.78960228810287				
562.718	0.149351001803432				
563.301	-8.67145423823405				
563.885	1.64569199280124				
564.468	-0.599798560068473				
565.052	4.20982711909992				
565.635	3.46732570462584				
566.219	10.2753406326725				
566.803	4.54146057956283				
567.386	-3.03258924008132				
567.97	-3.03727913474848				
568.554	0.152079287574592				
569.137	11.7248431743099				
569.721	-4.26689123300203				
570.305	-1.37322893979965				
570.889	1.37556420090692				
571.473	4.74874811200244				
572.057	0.307068228446423				
572.641	3.22836921411974				
573.225	7.08699515598517				
573.809	2.78306174268077				
574.393	0.774122847444597				
574.977	0.774348235657612				
575.561	3.41491315457031				
576.145	-4.82274399495857				
576.73	12.3137043426188				
577.314	-2.0292792527576				
577.898	-0.156268617471563				
578.482	6.26297541319325				
579.067	5.8054700908564				
579.651	4.55871544744195				
580.236	0.472552240033297				
580.82	8.68326566315946				
581.405	2.68662557308325				
581.989	1.42295720215368				
582.574	10.6041399483499				
583.158	2.21798452816285				
583.743	1.58559608310231				
584.328	8.09510518618121				
584.912	-0.158923214441726				
585.497	2.70640511769027				
586.082	2.55149690716972				
586.667	4.94743161723044				
587.251	-0.319444696533981				
587.836	0.319705966807439				
588.421	-10.7317060566564				
589.006	-1.76627637647572				
589.591	-10.4608510426354				
590.176	3.06356761377513				
590.761	2.58243265211929				
591.346	-0.969095303382495				
591.931	-3.55512764780629				
592.516	3.07148888500691				
593.102	-2.91211949117633				
593.687	11.8434250203467				
594.272	-0.650257887501127				
594.857	2.4411354617754				
595.443	3.5861646652123				
596.028	-1.46962289393342				
596.613	3.59483705986942				
597.199	2.1252247078619				
597.784	1.1444382604631				
598.369	0				
598.955	4.27000416506745				
599.54	2.63236118621154				
600.126	-1.48298559800832				
600.712	-0.989624675620731				
601.297	-4.13096182719776				
601.883	8.4494779102055				
602.469	-2.6541242378889				
603.054	2.3246037165949				
603.64	7.98320379677637				
604.226	10.4972613567259				
604.812	-8.51607882055113				
605.397	6.69390258019776				
605.983	-3.52206483057793				
606.569	10.2419919181966				
607.155	14.9593222791874				
607.741	11.9471060133686				
608.327	18.8797771377708				
608.913	10.6444602998376				
609.499	18.6110310871656				
610.085	9.14784451247909				
610.671	8.48369549845654				
611.257	26.5202257939907				
611.844	5.96414416003438				
612.43	1.19542749039183				
613.016	4.10711266099621				
613.602	12.5033985248857				
614.189	3.94458815189122				
614.775	1.89072700853685				
615.361	6.03324179851011				
615.948	3.4588836436632				
616.534	2.42295540699379				
617.121	-2.25132354085677				
617.707	1.73401367039034				
618.294	5.20709574138209				
618.88	-2.08420581589648				
619.467	2.61169417700474				
620.053	5.93699396379172				
620.64	2.62613730732487				
621.227	-0.701403829810792				
621.813	11.3968114677415				
622.4	2.45699656620143				
622.987	-0.70299167627399				
623.574	8.81655857257613				
624.161	2.12186339745951				
624.747	3.1868564351355				
625.334	-4.25469197432936				
625.921	4.97039346075563				
626.508	5.51442398969319				
627.095	7.30918643124929				
627.682	7.14572674409688				
628.269	4.29573175738454				
628.856	-6.45499112747759				
629.443	-4.8502265647941				
630.03	-0.53990463613306				
630.618	6.4855436803485				
631.205	7.39476556778635				
631.792	0				
632.379	-0.361555432939271				
632.966	-2.35184582706848				
633.554	1.4467438690128				
634.141	4.88400154897048				
634.728	3.44536307329897				
635.316	10.3456659295789				
635.903	-1.9957426765686				
636.491	-2.18138428274015				
637.078	-0.546539112429166				
637.666	-0.911714707415381				
638.253	5.47512687188822				
638.841	-4.93191666408921				
639.428	1.28020181861702				
640.016	2.56393164643778				
640.604	1.28514799086888				
641.191	2.2080119979696				
641.779	-1.65884267428081				
642.367	-11.630817863343				
642.954	4.43777288367178				
643.542	-2.03772588506166				
644.13	6.68403358265581				
644.718	-0.186351705385174				
645.306	1.30811910987805				
645.894	-5.80467676769888				
646.481	-8.06867658902032				
647.069	-13.7253163502445				
647.657	10.914806742107				
648.245	-0.942376895519013				
648.833	-7.17947323160855				
649.422	-5.11693808787084				
650.01	-4.1831470164241				
650.598	2.47713542346434				
651.186	1.33715211330356				
651.774	-4.02442803421961				
652.362	11.9154611617773				
652.95	8.28546206515149				
653.539	5.79600373865224				
654.127	-1.35520563725564				
654.715	9.48567449724855				
655.304	2.51988456956169				
655.892	-2.91509231435546				
656.48	-0.778782806447862				
657.069	4.29027908883052				
657.657	-3.31970891990355				
658.246	5.27892982419638				
658.834	3.52293259221125				
659.423	-3.13933292768306				
660.011	3.14893100270141				
660.6	0.986643789432207				
661.188	3.36341258962406				
661.777	-3.37222793585776				
662.366	-8.14971599573249				
662.954	1.59289887403257				
663.543	0.598383448191684				
664.132	6.79130795764857				
664.721	3.59635894942406				
665.309	4.40053369818185				
665.898	6.6134603969634				
666.487	-4.21256125395051				
667.076	-1.60638970368128				
667.665	6.4429481498241				
668.254	-2.22055940171552				
668.843	9.10683758294285				
669.432	9.52486606422479				
670.021	12.1713511380516				
670.61	16.2389046033818				
671.199	13.207564145025				
671.788	13.4343177138897				
672.377	12.8462069954259				
672.966	18.7924977184884				
673.555	9.81207205934562				
674.144	17.7966264236649				
674.734	9.82582037353751				
675.323	19.8870690318961				
675.912	4.10958311633062				
676.501	19.9796792014455				
677.091	16.0993504544009				
677.68	4.12791542747472				
678.269	3.71763849836216				
678.859	10.7561592514852				
679.448	8.69973918078959				
680.038	16.5935176301308				
680.627	5.19343852711116				
681.216	14.7723111405082				
681.806	11.6699755136626				
682.395	11.4901963846015				
682.985	7.54296554368679				
683.575	14.4504910294205				
684.164	2.09455127203507				
684.754	21.8255152942329				
685.343	21.2433131134189				
685.933	15.3917477949798				
686.523	25.7569022935476				
687.113	33.8301430645982				
687.702	39.6537047710495				
688.292	48.0514150153261				
688.882	62.4474663450947				
689.472	77.0216939496406				
690.062	98.0001821506002				
690.651	99.7734096938175				
691.241	127.506612715086				
691.831	145.178663689722				
692.421	168.219854857664				
693.011	183.779010866272				
693.601	208.323213611098				
694.191	231.811240146768				
694.781	257.950954477835				
695.371	264.45641427358				
695.961	301.023949170199				
696.551	315.100255761667				
697.141	338.538134822313				
697.732	344.082863048951				
698.322	360.319524303773				
698.912	375.697472860515				
699.502	384.54842985206				
700.092	383.038537145072				
700.683	382.638189310198				
701.273	377.701446668909				
701.863	367.747708903857				
702.454	371.942999096447				
703.044	346.057426453597				
703.634	327.561432452519				
704.225	305.974994305488				
704.815	294.292294827554				
705.406	269.630063222042				
705.996	253.483045971615				
706.587	236.361479241432				
707.177	212.145722531304				
707.768	187.316331988658				
708.358	146.342221554909				
708.949	138.841105100701				
709.539	126.245704567534				
710.13	104.335842573145				
710.721	84.7846663988689				
711.311	69.0244781797127				
711.902	52.265744302267				
712.493	34.8796255877109				
713.083	32.3866480492496				
713.674	34.7854190847406				
714.265	11.0826901386296				
714.856	16.4169478437312				
715.446	25.2655031430009				
716.037	12.5501888680118				
716.628	24.88845752911				
717.219	12.1092446089459				
717.81	4.19880909678149				
718.401	12.6276784895797				
718.992	3.75217102228463				
719.583	16.2027611846829				
720.174	-0.940411648269436				
720.765	3.76510319109065				
721.356	8.23539764142619				
721.947	13.4017347365662				
722.538	9.89821465391289				
723.129	3.78211236251425				
723.72	-3.08613157895598				
724.311	8.09308032686067				
724.902	0.71499174588498				
725.494	5.00953271594029				
726.085	8.59689334514957				
726.676	9.33506563452948				
727.267	10.7833593286018				
727.858	-4.55144334972876				
728.45	2.40004329952915				
729.041	-2.64697386180543				
729.632	13.9988084079033				
730.224	-0.726011788328427				
730.815	7.51797795508563				
731.406	5.09955663868796				
731.998	-3.64605094124076				
732.589	2.18555431919419				
733.181	16.2812086664754				
733.772	-6.58976031091716				
734.364	8.31906934459794				
734.955	-7.10526220861713				
735.547	9.08878607145105				
736.138	7.63916291763678				
736.73	-0.49523164616395				
737.321	-7.19770348442119				
737.913	12.6615629325614				
738.504	1.24273867427579				
739.096	-9.70699350300451				
739.688	-12.9690265497051				
740.279	-9.49211961728182				
740.871	1.25024700497326				
741.463	-3.26087308267541				
742.054	4.27908361627346				
742.646	-11.0880745242639				
743.238	3.7863140859006				
743.83	4.55455971582577				
744.422	-4.56377030741337				
745.013	3.55638012954158				
745.605	17.0914689102534				
746.197	2.81663413693587				
746.789	0.770404785667418				
747.381	2.05938725940816				
747.973	-3.09573097200878				
748.565	2.57669003548783				
749.157	0.515001337302455				
749.749	-4.38319732184168				
750.341	-4.39800549199				
750.933	-9.09902875965364				
751.525	3.40150276882505				
752.117	0				
752.709	-8.91683841146767				
753.301	3.67017314933051				
753.893	1.31291910281645				
754.485	6.85067595113429				
755.077	16.9290648651946				
755.669	10.6273315676516				
756.261	17.3292644713787				
756.854	0.267214063541559				
757.446	-23.5908336975987				
758.038	7.53353100626539				
758.63	4.59799355626652				
759.222	-3.80626093682163				
759.815	1.63960261283631				
760.407	1.09155767560359				
760.999	0.27170870932819				
761.592	10.6043639452736				
762.184	3.26984882169919				
762.776	10.134741516438				
763.369	2.48360002339487				
763.961	9.46456177126419				
764.553	2.77431440170199				
765.146	-14.3868929988701				
765.738	-13.5819823676916				
766.331	6.38703553291775				
766.923	-6.67705885949127				
767.516	-1.95810207265283				
768.108	5.34001264548588				
768.701	4.21276453450293				
769.293	-8.14028680377912				
769.886	-11.5045815788789				
770.478	-10.3926697087922				
771.071	0.562605399784577				
771.663	-0.564093560393392				
772.256	13.247664958334				
772.849	10.6576114553125				
773.441	10.9689392509346				
774.034	5.94083147343339				
774.627	14.8795834075707				
775.219	11.8205559144847				
775.812	5.77244518846661				
776.405	10.1420691467437				
776.998	1.45656106464458				
777.59	-3.21034803493606				
778.183	11.1179071080551				
778.776	-1.46866176480853				
779.369	3.24550929878464				
779.961	18.3801381581638				
780.554	4.12368499587673				
781.147	24.6045175508754				
781.74	14.6395360744319				
782.333	20.2416113428979				
782.926	13.8395446255534				
783.519	13.3236780033353				
784.112	33.3305881972915				
784.705	3.57975875289662				
785.297	29.1783324080776				
785.89	14.7937941414291				
786.483	29.1430084161045				
787.076	21.8545928056221				
787.669	33.55054641879				
788.262	25.4656791414789				
788.855	17.9672237794207				
789.449	31.1534923128259				
790.042	25.7948133463435				
790.635	31.5204890787907				
791.228	19.1854504254594				
791.821	16.0733441362725				
792.414	22.2307863640715				
793.007	33.4482728203154				
793.6	38.163085499449				
794.193	24.0203447912408				
794.787	29.7454516540845				
795.38	4.29435712415302				
795.973	6.76720783543143				
796.566	34.988954873099				
797.159	29.8425461006802				
797.753	18.3390084067929				
798.346	32.771739807104				
798.939	43.5430081821061				
799.532	54.9749240342448				
800.126	16.4430482864268				
800.719	26.3510389205558				
801.312	10.7512238795868				
801.906	16.2322399750624				
802.499	13.702540238689				
803.092	25.2969973637336				
803.686	9.4863740114001				
804.279	20.4484062023513				
804.873	10.5404155682223				
805.466	7.79990752048453				
806.059	16.8646649091557				
806.653	-1.89727480228002				
807.246	17.2862815318846				
807.84	6.53505765229785				
808.433	-1.47565817955113				
809.027	7.58909920912008				
809.62	-7.16748258639119				
810.214	2.31889142500891				
810.807	3.79454960456004				
811.401	2.74050804773781				
811.994	3.37293298183115				
812.588	9.4863740114001				
813.181	10.7512238795868				
813.775	-0.63242493409334				
814.369	14.7565817955113				
814.962	2.31889142500891				
815.556	3.79454960456004				
816.149	3.1621246704667				
816.743	6.3242493409334				
817.337	5.27020778411117				
817.93	1.89727480228002				
818.524	6.53505765229785				
819.118	1.26484986818668				
819.711	5.69182440684006				
820.305	5.48101609547561				
820.899	-6.3242493409334				
821.493	4.63778285001783				
822.086	0.843233245457787				
822.68	-2.31889142500891				
823.274	-2.31889142500891				
823.868	-4.21616622728893				
824.461	12.4376903705024				
825.055	-1.68646649091557				
825.649	7.16748258639119				
